,time,channel1,channel2,channel3,channel4,channel5,channel6,channel7,channel8,class
13645,14122,2e-05,-1e-05,-5e-05,-0.00022999999999999998,-0.0010199999999999999,1e-05,2e-05,4e-05,4
13646,14123,2e-05,-1e-05,-5e-05,-0.00022999999999999998,-0.0010199999999999999,1e-05,2e-05,4e-05,4
13647,14124,2e-05,-1e-05,-5e-05,-0.00022999999999999998,-0.0010199999999999999,1e-05,2e-05,4e-05,4
13648,14125,2e-05,-1e-05,-5e-05,-0.00022999999999999998,-0.0010199999999999999,1e-05,2e-05,4e-05,4
13649,14126,2e-05,-1e-05,-5e-05,-0.00022999999999999998,-0.0010199999999999999,1e-05,2e-05,4e-05,4
13650,14127,2e-05,-1e-05,-5e-05,-0.00022999999999999998,-0.0010199999999999999,1e-05,2e-05,4e-05,4
13651,14128,2e-05,-1e-05,-5e-05,-0.00022999999999999998,-0.0010199999999999999,1e-05,2e-05,4e-05,4
13652,14129,2e-05,-1e-05,-5e-05,-0.00022999999999999998,-0.0010199999999999999,1e-05,2e-05,4e-05,4
13653,14130,2e-05,-1e-05,-5e-05,-0.00022999999999999998,-0.0010199999999999999,1e-05,2e-05,4e-05,4
13654,14131,-1e-05,-2e-05,-0.0001,-0.00018,-0.00047000000000000004,-0.00011999999999999999,-5e-05,-1e-05,4
13655,14132,-1e-05,-2e-05,-0.0001,-0.00018,-0.00047000000000000004,-0.00011999999999999999,-5e-05,-1e-05,4
13656,14133,-1e-05,-2e-05,-0.0001,-0.00018,-0.00047000000000000004,-0.00011999999999999999,-5e-05,-1e-05,4
13657,14134,-1e-05,-2e-05,-0.0001,-0.00018,-0.00047000000000000004,-0.00011999999999999999,-5e-05,-1e-05,4
13658,14135,-1e-05,-2e-05,-0.0001,-0.00018,-0.00047000000000000004,-0.00011999999999999999,-5e-05,-1e-05,4
13659,14137,-1e-05,-2e-05,-0.0001,-0.00018,-0.00047000000000000004,-0.00011999999999999999,-5e-05,-1e-05,4
13660,14139,0.00011,0.00014,0.0003,0.0007599999999999999,0.00091,0.00037999999999999997,0.00022,0.00016,4
13661,14140,0.00011,0.00014,0.0003,0.0007599999999999999,0.00091,0.00037999999999999997,0.00022,0.00016,4
13662,14141,0.00011,0.00014,0.0003,0.0007599999999999999,0.00091,0.00037999999999999997,0.00022,0.00016,4
13663,14142,0.00011,0.00014,0.0003,0.0007599999999999999,0.00091,0.00037999999999999997,0.00022,0.00016,4
13664,14143,0.00011,0.00014,0.0003,0.0007599999999999999,0.00091,0.00037999999999999997,0.00022,0.00016,4
13665,14144,0.00011,0.00014,0.0003,0.0007599999999999999,0.00091,0.00037999999999999997,0.00022,0.00016,4
13666,14145,0.00011,0.00014,0.0003,0.0007599999999999999,0.00091,0.00037999999999999997,0.00022,0.00016,4
13667,14146,0.00011,0.00014,0.0003,0.0007599999999999999,0.00091,0.00037999999999999997,0.00022,0.00016,4
13668,14147,0.00011,0.00014,0.0003,0.0007599999999999999,0.00091,0.00037999999999999997,0.00022,0.00016,4
13669,14148,0.00011,0.00014,0.0003,0.0007599999999999999,0.00091,0.00037999999999999997,0.00022,0.00016,4
13670,14149,0.00011,0.00014,0.0003,0.0007599999999999999,0.00091,0.00037999999999999997,0.00022,0.00016,4
13671,14150,0.00011,0.00014,0.0003,0.0007599999999999999,0.00091,0.00037999999999999997,0.00022,0.00016,4
13672,14151,0.00011,0.00014,0.0003,0.0007599999999999999,0.00091,0.00037999999999999997,0.00022,0.00016,4
13673,14152,0.00011,0.00014,0.0003,0.0007599999999999999,0.00091,0.00037999999999999997,0.00022,0.00016,4
13674,14153,-4e-05,-5e-05,-2.9999999999999997e-05,-0.00016,-0.0008900000000000001,-0.00035,-9e-05,-4e-05,4
13675,14154,-4e-05,-7e-05,-0.00022,-0.00049,-2e-05,-2e-05,-8e-05,-5.9999999999999995e-05,4
13676,14155,-4e-05,-7e-05,-0.00022,-0.00049,-2e-05,-2e-05,-8e-05,-5.9999999999999995e-05,4
13677,14156,-4e-05,-7e-05,-0.00022,-0.00049,-2e-05,-2e-05,-8e-05,-5.9999999999999995e-05,4
13678,14157,-4e-05,-7e-05,-0.00022,-0.00049,-2e-05,-2e-05,-8e-05,-5.9999999999999995e-05,4
13679,14158,-4e-05,-7e-05,-0.00022,-0.00049,-2e-05,-2e-05,-8e-05,-5.9999999999999995e-05,4
13680,14159,-4e-05,-7e-05,-0.00022,-0.00049,-2e-05,-2e-05,-8e-05,-5.9999999999999995e-05,4
13681,14160,-4e-05,-7e-05,-0.00022,-0.00049,-2e-05,-2e-05,-8e-05,-5.9999999999999995e-05,4
13682,14161,-4e-05,-7e-05,-0.00022,-0.00049,-2e-05,-2e-05,-8e-05,-5.9999999999999995e-05,4
13683,14162,-4e-05,-7e-05,-0.00022,-0.00049,-2e-05,-2e-05,-8e-05,-5.9999999999999995e-05,4
13684,14163,-4e-05,-7e-05,-0.00022,-0.00049,-2e-05,-2e-05,-8e-05,-5.9999999999999995e-05,4
13685,14164,-4e-05,-7e-05,-0.00022,-0.00049,-2e-05,-2e-05,-8e-05,-5.9999999999999995e-05,4
13686,14165,-4e-05,-7e-05,-0.00022,-0.00049,-2e-05,-2e-05,-8e-05,-5.9999999999999995e-05,4
13687,14166,-4e-05,-7e-05,-0.00022,-0.00049,-2e-05,-2e-05,-8e-05,-5.9999999999999995e-05,4
13688,14167,-4e-05,-7e-05,-0.00022,-0.00049,-2e-05,-2e-05,-8e-05,-5.9999999999999995e-05,4
13689,14168,-4e-05,-7e-05,-0.00022,-0.00049,-2e-05,-2e-05,-8e-05,-5.9999999999999995e-05,4
13690,14169,-4e-05,-7e-05,-0.00022,-0.00049,-2e-05,-2e-05,-8e-05,-5.9999999999999995e-05,4
13691,14170,-4e-05,-7e-05,-0.00022,-0.00049,-2e-05,-2e-05,-8e-05,-5.9999999999999995e-05,4
13692,14171,-4e-05,-7e-05,-0.00022,-0.00049,-2e-05,-2e-05,-8e-05,-5.9999999999999995e-05,4
13693,14172,-4e-05,-7e-05,-0.00022,-0.00049,-2e-05,-2e-05,-8e-05,-5.9999999999999995e-05,4
13694,14173,-4e-05,-7e-05,-0.00022,-0.00049,-2e-05,-2e-05,-8e-05,-5.9999999999999995e-05,4
13695,14174,-4e-05,-7e-05,-0.00022,-0.00049,-2e-05,-2e-05,-8e-05,-5.9999999999999995e-05,4
13696,14175,-5e-05,-5.9999999999999995e-05,-8e-05,0.00033,0.00025,-0.0001,-0.00011,-9e-05,4
13697,14176,-4e-05,-5e-05,-1e-05,0.00028,4e-05,2e-05,-4e-05,-5e-05,4
13698,14177,-4e-05,-5e-05,-1e-05,0.00028,4e-05,2e-05,-4e-05,-5e-05,4
13699,14178,-4e-05,-5e-05,-1e-05,0.00028,4e-05,2e-05,-4e-05,-5e-05,4
13700,14179,-4e-05,-5e-05,-1e-05,0.00028,4e-05,2e-05,-4e-05,-5e-05,4
13701,14180,-4e-05,-5e-05,-1e-05,0.00028,4e-05,2e-05,-4e-05,-5e-05,4
13702,14181,-4e-05,-5e-05,-1e-05,0.00028,4e-05,2e-05,-4e-05,-5e-05,4
13703,14182,-4e-05,-5e-05,-1e-05,0.00028,4e-05,2e-05,-4e-05,-5e-05,4
13704,14184,-4e-05,-5e-05,-1e-05,0.00028,4e-05,2e-05,-4e-05,-5e-05,4
13705,14185,-4e-05,-5e-05,-1e-05,0.00028,4e-05,2e-05,-4e-05,-5e-05,4
13706,14187,-4e-05,-5e-05,-1e-05,0.00028,4e-05,2e-05,-4e-05,-5e-05,4
13707,14189,-4e-05,-5e-05,-1e-05,0.00028,4e-05,2e-05,-4e-05,-5e-05,4
13708,14190,-4e-05,-5e-05,-1e-05,0.00028,4e-05,2e-05,-4e-05,-5e-05,4
13709,14191,-4e-05,-5e-05,-1e-05,0.00028,4e-05,2e-05,-4e-05,-5e-05,4
13710,14192,-4e-05,-5e-05,-1e-05,0.00028,4e-05,2e-05,-4e-05,-5e-05,4
13711,14193,-4e-05,-5e-05,-1e-05,0.00028,4e-05,2e-05,-4e-05,-5e-05,4
13712,14194,-4e-05,-5e-05,-1e-05,0.00028,4e-05,2e-05,-4e-05,-5e-05,4
13713,14195,-4e-05,-5e-05,-1e-05,0.00028,4e-05,2e-05,-4e-05,-5e-05,4
13714,14196,-4e-05,-5e-05,-1e-05,0.00028,4e-05,2e-05,-4e-05,-5e-05,4
13715,14197,-4e-05,-5e-05,-1e-05,0.00028,4e-05,2e-05,-4e-05,-5e-05,4
13716,14198,-4e-05,-5e-05,-1e-05,0.00028,4e-05,2e-05,-4e-05,-5e-05,4
13717,14199,-0.00011,-0.00013000000000000002,-4e-05,0.00021,-0.00016,-0.00029,-0.00016999999999999999,-0.00014,4
13718,14200,-9e-05,-0.00013000000000000002,-0.00025,-0.0006799999999999999,-0.00059,-0.00027,-0.00011,-9e-05,4
13719,14202,-9e-05,-0.00013000000000000002,-0.00025,-0.0006799999999999999,-0.00059,-0.00027,-0.00011,-9e-05,4
13720,14203,-9e-05,-0.00013000000000000002,-0.00025,-0.0006799999999999999,-0.00059,-0.00027,-0.00011,-9e-05,4
13721,14204,-9e-05,-0.00013000000000000002,-0.00025,-0.0006799999999999999,-0.00059,-0.00027,-0.00011,-9e-05,4
13722,14205,-9e-05,-0.00013000000000000002,-0.00025,-0.0006799999999999999,-0.00059,-0.00027,-0.00011,-9e-05,4
13723,14206,-9e-05,-0.00013000000000000002,-0.00025,-0.0006799999999999999,-0.00059,-0.00027,-0.00011,-9e-05,4
13724,14207,-9e-05,-0.00013000000000000002,-0.00025,-0.0006799999999999999,-0.00059,-0.00027,-0.00011,-9e-05,4
13725,14208,-9e-05,-0.00013000000000000002,-0.00025,-0.0006799999999999999,-0.00059,-0.00027,-0.00011,-9e-05,4
13726,14209,-9e-05,-0.00013000000000000002,-0.00025,-0.0006799999999999999,-0.00059,-0.00027,-0.00011,-9e-05,4
13727,14210,-9e-05,-0.00013000000000000002,-0.00025,-0.0006799999999999999,-0.00059,-0.00027,-0.00011,-9e-05,4
13728,14211,-9e-05,-0.00013000000000000002,-0.00025,-0.0006799999999999999,-0.00059,-0.00027,-0.00011,-9e-05,4
13729,14212,-9e-05,-0.00013000000000000002,-0.00025,-0.0006799999999999999,-0.00059,-0.00027,-0.00011,-9e-05,4
13730,14213,5e-05,2e-05,-0.0001,-0.0002,0.0,9e-05,8e-05,5.9999999999999995e-05,4
13731,14214,1e-05,-2e-05,-0.00013000000000000002,-0.0003,-0.00041,0.00018999999999999998,5e-05,-1e-05,4
13732,14215,1e-05,-2e-05,-0.00013000000000000002,-0.0003,-0.00041,0.00018999999999999998,5e-05,-1e-05,4
13733,14216,1e-05,-2e-05,-0.00013000000000000002,-0.0003,-0.00041,0.00018999999999999998,5e-05,-1e-05,4
13734,14217,1e-05,-2e-05,-0.00013000000000000002,-0.0003,-0.00041,0.00018999999999999998,5e-05,-1e-05,4
13735,14218,1e-05,-2e-05,-0.00013000000000000002,-0.0003,-0.00041,0.00018999999999999998,5e-05,-1e-05,4
13736,14219,1e-05,-2e-05,-0.00013000000000000002,-0.0003,-0.00041,0.00018999999999999998,5e-05,-1e-05,4
13737,14220,1e-05,-2e-05,-0.00013000000000000002,-0.0003,-0.00041,0.00018999999999999998,5e-05,-1e-05,4
13738,14221,1e-05,-2e-05,-0.00013000000000000002,-0.0003,-0.00041,0.00018999999999999998,5e-05,-1e-05,4
13739,14222,1e-05,-2e-05,-0.00013000000000000002,-0.0003,-0.00041,0.00018999999999999998,5e-05,-1e-05,4
13740,14223,1e-05,-2e-05,-0.00013000000000000002,-0.0003,-0.00041,0.00018999999999999998,5e-05,-1e-05,4
13741,14224,1e-05,-2e-05,-0.00013000000000000002,-0.0003,-0.00041,0.00018999999999999998,5e-05,-1e-05,4
13742,14225,1e-05,-2e-05,-0.00013000000000000002,-0.0003,-0.00041,0.00018999999999999998,5e-05,-1e-05,4
13743,14226,1e-05,-2e-05,-0.00013000000000000002,-0.0003,-0.00041,0.00018999999999999998,5e-05,-1e-05,4
13744,14227,1e-05,-2e-05,-0.00013000000000000002,-0.0003,-0.00041,0.00018999999999999998,5e-05,-1e-05,4
13745,14228,1e-05,-2e-05,-0.00013000000000000002,-0.0003,-0.00041,0.00018999999999999998,5e-05,-1e-05,4
13746,14229,1e-05,-2e-05,-0.00013000000000000002,-0.0003,-0.00041,0.00018999999999999998,5e-05,-1e-05,4
13747,14230,1e-05,-2e-05,-0.00013000000000000002,-0.0003,-0.00041,0.00018999999999999998,5e-05,-1e-05,4
13748,14231,1e-05,-2e-05,-0.00013000000000000002,-0.0003,-0.00041,0.00018999999999999998,5e-05,-1e-05,4
13749,14232,1e-05,-2e-05,-0.00013000000000000002,-0.0003,-0.00041,0.00018999999999999998,5e-05,-1e-05,4
13750,14233,1e-05,-2e-05,-0.00013000000000000002,-0.0003,-0.00041,0.00018999999999999998,5e-05,-1e-05,4
13751,14234,1e-05,-2e-05,-0.00013000000000000002,-0.0003,-0.00041,0.00018999999999999998,5e-05,-1e-05,4
13752,14235,1e-05,-2e-05,-0.00013000000000000002,-0.0003,-0.00041,0.00018999999999999998,5e-05,-1e-05,4
13753,14237,1e-05,-2e-05,-0.00013000000000000002,-0.0003,-0.00041,0.00018999999999999998,5e-05,-1e-05,4
13754,14239,1e-05,-2e-05,-0.00013000000000000002,-0.0003,-0.00041,0.00018999999999999998,5e-05,-1e-05,4
13755,14240,1e-05,-2e-05,-0.00013000000000000002,-0.0003,-0.00041,0.00018999999999999998,5e-05,-1e-05,4
13756,14241,1e-05,-2e-05,-0.00013000000000000002,-0.0003,-0.00041,0.00018999999999999998,5e-05,-1e-05,4
13757,14242,1e-05,-2e-05,-0.00013000000000000002,-0.0003,-0.00041,0.00018999999999999998,5e-05,-1e-05,4
13758,14243,1e-05,-2e-05,-0.00013000000000000002,-0.0003,-0.00041,0.00018999999999999998,5e-05,-1e-05,4
13759,14244,-5.9999999999999995e-05,-5.9999999999999995e-05,-0.00011,-0.00022,-0.0011,-0.00058,-0.00022,-9e-05,4
13760,14245,1e-05,5.9999999999999995e-05,0.00022,0.0005099999999999999,0.00085,0.00022,8e-05,5e-05,4
13761,14246,1e-05,5.9999999999999995e-05,0.00022,0.0005099999999999999,0.00085,0.00022,8e-05,5e-05,4
13762,14247,1e-05,5.9999999999999995e-05,0.00022,0.0005099999999999999,0.00085,0.00022,8e-05,5e-05,4
13763,14248,1e-05,5.9999999999999995e-05,0.00022,0.0005099999999999999,0.00085,0.00022,8e-05,5e-05,4
13764,14249,1e-05,5.9999999999999995e-05,0.00022,0.0005099999999999999,0.00085,0.00022,8e-05,5e-05,4
13765,14250,1e-05,2e-05,-0.00015,-0.00062,0.00042,2.9999999999999997e-05,4e-05,2.9999999999999997e-05,4
13766,14251,1e-05,2e-05,-0.00015,-0.00062,0.00042,2.9999999999999997e-05,4e-05,2.9999999999999997e-05,4
13767,14252,1e-05,2e-05,-0.00015,-0.00062,0.00042,2.9999999999999997e-05,4e-05,2.9999999999999997e-05,4
13768,14253,1e-05,2e-05,-0.00015,-0.00062,0.00042,2.9999999999999997e-05,4e-05,2.9999999999999997e-05,4
13769,14254,1e-05,2e-05,-0.00015,-0.00062,0.00042,2.9999999999999997e-05,4e-05,2.9999999999999997e-05,4
13770,14255,1e-05,2e-05,-0.00015,-0.00062,0.00042,2.9999999999999997e-05,4e-05,2.9999999999999997e-05,4
13771,14256,1e-05,2e-05,-0.00015,-0.00062,0.00042,2.9999999999999997e-05,4e-05,2.9999999999999997e-05,4
13772,14257,0.00015,0.00022,0.00047999999999999996,0.00072,0.00067,0.00041,0.00021,0.00015,4
13773,14258,0.00015,0.00022,0.00047999999999999996,0.00072,0.00067,0.00041,0.00021,0.00015,4
13774,14259,0.00015,0.00022,0.00047999999999999996,0.00072,0.00067,0.00041,0.00021,0.00015,4
13775,14260,0.00015,0.00022,0.00047999999999999996,0.00072,0.00067,0.00041,0.00021,0.00015,4
13776,14261,0.00015,0.00022,0.00047999999999999996,0.00072,0.00067,0.00041,0.00021,0.00015,4
13777,14262,0.00015,0.00022,0.00047999999999999996,0.00072,0.00067,0.00041,0.00021,0.00015,4
13778,14263,0.00015,0.00022,0.00047999999999999996,0.00072,0.00067,0.00041,0.00021,0.00015,4
13779,14264,0.00015,0.00022,0.00047999999999999996,0.00072,0.00067,0.00041,0.00021,0.00015,4
13780,14265,0.00015,0.00022,0.00047999999999999996,0.00072,0.00067,0.00041,0.00021,0.00015,4
13781,14266,0.00015,0.00022,0.00047999999999999996,0.00072,0.00067,0.00041,0.00021,0.00015,4
13782,14267,0.00015,0.00022,0.00047999999999999996,0.00072,0.00067,0.00041,0.00021,0.00015,4
13783,14268,0.00015,0.00022,0.00047999999999999996,0.00072,0.00067,0.00041,0.00021,0.00015,4
13784,14269,0.00015,0.00022,0.00047999999999999996,0.00072,0.00067,0.00041,0.00021,0.00015,4
13785,14270,0.00015,0.00022,0.00047999999999999996,0.00072,0.00067,0.00041,0.00021,0.00015,4
13786,14271,0.00015,0.00022,0.00047999999999999996,0.00072,0.00067,0.00041,0.00021,0.00015,4
13787,14272,0.00015,0.00022,0.00047999999999999996,0.00072,0.00067,0.00041,0.00021,0.00015,4
13788,14273,0.00015,0.00022,0.00047999999999999996,0.00072,0.00067,0.00041,0.00021,0.00015,4
13789,14274,0.00015,0.00022,0.00047999999999999996,0.00072,0.00067,0.00041,0.00021,0.00015,4
13790,14275,0.00015,0.00022,0.00047999999999999996,0.00072,0.00067,0.00041,0.00021,0.00015,4
13791,14276,0.00015,0.00022,0.00047999999999999996,0.00072,0.00067,0.00041,0.00021,0.00015,4
13792,14277,0.00015,0.00022,0.00047999999999999996,0.00072,0.00067,0.00041,0.00021,0.00015,4
13793,14278,0.00015,0.00022,0.00047999999999999996,0.00072,0.00067,0.00041,0.00021,0.00015,4
13794,14279,0.00015,0.00022,0.00047999999999999996,0.00072,0.00067,0.00041,0.00021,0.00015,4
13795,14280,0.00015,0.00022,0.00047999999999999996,0.00072,0.00067,0.00041,0.00021,0.00015,4
13796,14281,0.00015,0.00022,0.00047999999999999996,0.00072,0.00067,0.00041,0.00021,0.00015,4
13797,14282,0.00015,0.00022,0.00047999999999999996,0.00072,0.00067,0.00041,0.00021,0.00015,4
13798,14283,7e-05,5.9999999999999995e-05,-5e-05,0.0005200000000000001,0.00053,5.9999999999999995e-05,5e-05,5.9999999999999995e-05,4
13799,14284,7e-05,5.9999999999999995e-05,-5e-05,0.0005200000000000001,0.00053,5.9999999999999995e-05,5e-05,5.9999999999999995e-05,4
13800,14285,7e-05,5.9999999999999995e-05,-5e-05,0.0005200000000000001,0.00053,5.9999999999999995e-05,5e-05,5.9999999999999995e-05,4
13801,14286,7e-05,5.9999999999999995e-05,-5e-05,0.0005200000000000001,0.00053,5.9999999999999995e-05,5e-05,5.9999999999999995e-05,4
13802,14289,7e-05,5.9999999999999995e-05,-5e-05,0.0005200000000000001,0.00053,5.9999999999999995e-05,5e-05,5.9999999999999995e-05,4
13803,14290,7e-05,5.9999999999999995e-05,-5e-05,0.0005200000000000001,0.00053,5.9999999999999995e-05,5e-05,5.9999999999999995e-05,4
13804,14291,7e-05,5.9999999999999995e-05,-5e-05,0.0005200000000000001,0.00053,5.9999999999999995e-05,5e-05,5.9999999999999995e-05,4
13805,14292,7e-05,5.9999999999999995e-05,-5e-05,0.0005200000000000001,0.00053,5.9999999999999995e-05,5e-05,5.9999999999999995e-05,4
13806,14293,7e-05,5.9999999999999995e-05,-5e-05,0.0005200000000000001,0.00053,5.9999999999999995e-05,5e-05,5.9999999999999995e-05,4
13807,14294,7e-05,5.9999999999999995e-05,-5e-05,0.0005200000000000001,0.00053,5.9999999999999995e-05,5e-05,5.9999999999999995e-05,4
13808,14295,7e-05,5.9999999999999995e-05,-5e-05,0.0005200000000000001,0.00053,5.9999999999999995e-05,5e-05,5.9999999999999995e-05,4
13809,14296,7e-05,5.9999999999999995e-05,-5e-05,0.0005200000000000001,0.00053,5.9999999999999995e-05,5e-05,5.9999999999999995e-05,4
13810,14297,7e-05,5.9999999999999995e-05,-5e-05,0.0005200000000000001,0.00053,5.9999999999999995e-05,5e-05,5.9999999999999995e-05,4
13811,14298,7e-05,5.9999999999999995e-05,-5e-05,0.0005200000000000001,0.00053,5.9999999999999995e-05,5e-05,5.9999999999999995e-05,4
13812,14299,7e-05,5.9999999999999995e-05,-5e-05,0.0005200000000000001,0.00053,5.9999999999999995e-05,5e-05,5.9999999999999995e-05,4
13813,14300,7e-05,5.9999999999999995e-05,-5e-05,0.0005200000000000001,0.00053,5.9999999999999995e-05,5e-05,5.9999999999999995e-05,4
13814,14301,7e-05,5.9999999999999995e-05,-5e-05,0.0005200000000000001,0.00053,5.9999999999999995e-05,5e-05,5.9999999999999995e-05,4
13815,14302,7e-05,5.9999999999999995e-05,-5e-05,0.0005200000000000001,0.00053,5.9999999999999995e-05,5e-05,5.9999999999999995e-05,4
13816,14303,-5.9999999999999995e-05,-5e-05,7e-05,0.00018999999999999998,-0.00055,-0.00011999999999999999,-7e-05,-5.9999999999999995e-05,4
13817,14305,-5.9999999999999995e-05,-5e-05,7e-05,0.00018999999999999998,-0.00055,-0.00011999999999999999,-7e-05,-5.9999999999999995e-05,4
13818,14306,-5.9999999999999995e-05,-5e-05,7e-05,0.00018999999999999998,-0.00055,-0.00011999999999999999,-7e-05,-5.9999999999999995e-05,4
13819,14307,-5.9999999999999995e-05,-5e-05,7e-05,0.00018999999999999998,-0.00055,-0.00011999999999999999,-7e-05,-5.9999999999999995e-05,4
13820,14308,-5.9999999999999995e-05,-5e-05,7e-05,0.00018999999999999998,-0.00055,-0.00011999999999999999,-7e-05,-5.9999999999999995e-05,4
13821,14309,-5.9999999999999995e-05,-5e-05,7e-05,0.00018999999999999998,-0.00055,-0.00011999999999999999,-7e-05,-5.9999999999999995e-05,4
13822,14310,-5.9999999999999995e-05,-5e-05,7e-05,0.00018999999999999998,-0.00055,-0.00011999999999999999,-7e-05,-5.9999999999999995e-05,4
13823,14311,9e-05,0.00011999999999999999,2e-05,-0.00047000000000000004,-0.00018,0.00031,0.00013000000000000002,7e-05,4
13824,14312,9e-05,0.00011999999999999999,2e-05,-0.00047000000000000004,-0.00018,0.00031,0.00013000000000000002,7e-05,4
13825,14313,-0.00013000000000000002,-0.00016999999999999999,-0.0002,-0.00021,-0.00026000000000000003,-0.00027,-0.00018999999999999998,-0.00015,4
13826,14314,-0.00013000000000000002,-0.00016999999999999999,-0.0002,-0.00021,-0.00026000000000000003,-0.00027,-0.00018999999999999998,-0.00015,4
13827,14315,-0.00013000000000000002,-0.00016999999999999999,-0.0002,-0.00021,-0.00026000000000000003,-0.00027,-0.00018999999999999998,-0.00015,4
13828,14316,-0.00013000000000000002,-0.00016999999999999999,-0.0002,-0.00021,-0.00026000000000000003,-0.00027,-0.00018999999999999998,-0.00015,4
13829,14317,-0.00013000000000000002,-0.00016999999999999999,-0.0002,-0.00021,-0.00026000000000000003,-0.00027,-0.00018999999999999998,-0.00015,4
13830,14318,-0.0001,-0.00011999999999999999,-0.00013000000000000002,-0.00029,0.0,-0.00025,-0.00013000000000000002,-0.00011,4
13831,14319,-0.0001,-0.00011999999999999999,-0.00013000000000000002,-0.00029,0.0,-0.00025,-0.00013000000000000002,-0.00011,4
13832,14320,-0.0001,-0.00011999999999999999,-0.00013000000000000002,-0.00029,0.0,-0.00025,-0.00013000000000000002,-0.00011,4
13833,14321,-0.0001,-0.00011999999999999999,-0.00013000000000000002,-0.00029,0.0,-0.00025,-0.00013000000000000002,-0.00011,4
13834,14322,-0.0001,-0.00011999999999999999,-0.00013000000000000002,-0.00029,0.0,-0.00025,-0.00013000000000000002,-0.00011,4
13835,14323,-0.0001,-0.00011999999999999999,-0.00013000000000000002,-0.00029,0.0,-0.00025,-0.00013000000000000002,-0.00011,4
13836,14324,-0.0001,-0.00011999999999999999,-0.00013000000000000002,-0.00029,0.0,-0.00025,-0.00013000000000000002,-0.00011,4
13837,14325,-0.0001,-0.00011999999999999999,-0.00013000000000000002,-0.00029,0.0,-0.00025,-0.00013000000000000002,-0.00011,4
13838,14326,-0.0001,-0.00011999999999999999,-0.00013000000000000002,-0.00029,0.0,-0.00025,-0.00013000000000000002,-0.00011,4
13839,14327,-0.0001,-0.00011999999999999999,-0.00013000000000000002,-0.00029,0.0,-0.00025,-0.00013000000000000002,-0.00011,4
13840,14328,-0.0001,-0.00011999999999999999,-0.00013000000000000002,-0.00029,0.0,-0.00025,-0.00013000000000000002,-0.00011,4
13841,14329,-0.0001,-0.00011999999999999999,-0.00013000000000000002,-0.00029,0.0,-0.00025,-0.00013000000000000002,-0.00011,4
13842,14330,-0.0001,-0.00011999999999999999,-0.00013000000000000002,-0.00029,0.0,-0.00025,-0.00013000000000000002,-0.00011,4
13843,14331,-0.0001,-0.00011999999999999999,-0.00013000000000000002,-0.00029,0.0,-0.00025,-0.00013000000000000002,-0.00011,4
13844,14332,-0.0001,-0.00011999999999999999,-0.00013000000000000002,-0.00029,0.0,-0.00025,-0.00013000000000000002,-0.00011,4
13845,14333,-0.0001,-0.00011999999999999999,-0.00013000000000000002,-0.00029,0.0,-0.00025,-0.00013000000000000002,-0.00011,4
13846,14334,0.00014,0.0002,0.00039,0.0005099999999999999,-5.9999999999999995e-05,0.00013000000000000002,0.00018,0.00015,4
13847,14335,0.00014,0.0002,0.00039,0.0005099999999999999,-5.9999999999999995e-05,0.00013000000000000002,0.00018,0.00015,4
13848,14337,0.00014,0.0002,0.00039,0.0005099999999999999,-5.9999999999999995e-05,0.00013000000000000002,0.00018,0.00015,4
13849,14339,0.00014,0.0002,0.00039,0.0005099999999999999,-5.9999999999999995e-05,0.00013000000000000002,0.00018,0.00015,4
13850,14340,0.00014,0.0002,0.00039,0.0005099999999999999,-5.9999999999999995e-05,0.00013000000000000002,0.00018,0.00015,4
13851,14341,0.00014,0.0002,0.00039,0.0005099999999999999,-5.9999999999999995e-05,0.00013000000000000002,0.00018,0.00015,4
13852,14342,0.00014,0.0002,0.00039,0.0005099999999999999,-5.9999999999999995e-05,0.00013000000000000002,0.00018,0.00015,4
13853,14343,0.00014,0.0002,0.00039,0.0005099999999999999,-5.9999999999999995e-05,0.00013000000000000002,0.00018,0.00015,4
13854,14344,0.00014,0.0002,0.00039,0.0005099999999999999,-5.9999999999999995e-05,0.00013000000000000002,0.00018,0.00015,4
13855,14345,0.00014,0.0002,0.00039,0.0005099999999999999,-5.9999999999999995e-05,0.00013000000000000002,0.00018,0.00015,4
13856,14346,0.00014,0.0002,0.00039,0.0005099999999999999,-5.9999999999999995e-05,0.00013000000000000002,0.00018,0.00015,4
13857,14347,0.00014,0.0002,0.00039,0.0005099999999999999,-5.9999999999999995e-05,0.00013000000000000002,0.00018,0.00015,4
13858,14348,0.00014,0.0002,0.00039,0.0005099999999999999,-5.9999999999999995e-05,0.00013000000000000002,0.00018,0.00015,4
13859,14349,0.00014,0.0002,0.00039,0.0005099999999999999,-5.9999999999999995e-05,0.00013000000000000002,0.00018,0.00015,4
13860,14350,0.00014,0.0002,0.00039,0.0005099999999999999,-5.9999999999999995e-05,0.00013000000000000002,0.00018,0.00015,4
13861,14351,0.00014,0.0002,0.00039,0.0005099999999999999,-5.9999999999999995e-05,0.00013000000000000002,0.00018,0.00015,4
13862,14352,0.00014,0.0002,0.00039,0.0005099999999999999,-5.9999999999999995e-05,0.00013000000000000002,0.00018,0.00015,4
13863,14353,0.00014,0.0002,0.00039,0.0005099999999999999,-5.9999999999999995e-05,0.00013000000000000002,0.00018,0.00015,4
13864,14354,0.00014,0.0002,0.00039,0.0005099999999999999,-5.9999999999999995e-05,0.00013000000000000002,0.00018,0.00015,4
13865,14355,0.00014,0.0002,0.00039,0.0005099999999999999,-5.9999999999999995e-05,0.00013000000000000002,0.00018,0.00015,4
13866,14356,-4e-05,0.0,0.00018,0.00082,1e-05,9e-05,-2e-05,-2e-05,4
13867,14357,-2.9999999999999997e-05,-2.9999999999999997e-05,1e-05,-0.00033999999999999997,-5e-05,7e-05,1e-05,-1e-05,4
13868,14358,-2.9999999999999997e-05,-2.9999999999999997e-05,1e-05,-0.00033999999999999997,-5e-05,7e-05,1e-05,-1e-05,4
13869,14359,-2.9999999999999997e-05,-2.9999999999999997e-05,1e-05,-0.00033999999999999997,-5e-05,7e-05,1e-05,-1e-05,4
13870,14360,-2.9999999999999997e-05,-2.9999999999999997e-05,1e-05,-0.00033999999999999997,-5e-05,7e-05,1e-05,-1e-05,4
13871,14361,-2.9999999999999997e-05,-2.9999999999999997e-05,1e-05,-0.00033999999999999997,-5e-05,7e-05,1e-05,-1e-05,4
13872,14362,-2.9999999999999997e-05,-2.9999999999999997e-05,1e-05,-0.00033999999999999997,-5e-05,7e-05,1e-05,-1e-05,4
13873,14364,-2.9999999999999997e-05,-2.9999999999999997e-05,1e-05,-0.00033999999999999997,-5e-05,7e-05,1e-05,-1e-05,4
13874,14365,-2.9999999999999997e-05,-2.9999999999999997e-05,1e-05,-0.00033999999999999997,-5e-05,7e-05,1e-05,-1e-05,4
13875,14366,-2.9999999999999997e-05,-2.9999999999999997e-05,1e-05,-0.00033999999999999997,-5e-05,7e-05,1e-05,-1e-05,4
13876,14367,-2.9999999999999997e-05,-2.9999999999999997e-05,1e-05,-0.00033999999999999997,-5e-05,7e-05,1e-05,-1e-05,4
13877,14368,-2.9999999999999997e-05,-2.9999999999999997e-05,1e-05,-0.00033999999999999997,-5e-05,7e-05,1e-05,-1e-05,4
13878,14369,-2.9999999999999997e-05,-2.9999999999999997e-05,1e-05,-0.00033999999999999997,-5e-05,7e-05,1e-05,-1e-05,4
13879,14370,-2.9999999999999997e-05,-2.9999999999999997e-05,1e-05,-0.00033999999999999997,-5e-05,7e-05,1e-05,-1e-05,4
13880,14371,-2.9999999999999997e-05,-2.9999999999999997e-05,1e-05,-0.00033999999999999997,-5e-05,7e-05,1e-05,-1e-05,4
13881,14372,-2.9999999999999997e-05,-2.9999999999999997e-05,1e-05,-0.00033999999999999997,-5e-05,7e-05,1e-05,-1e-05,4
13882,14373,-2.9999999999999997e-05,-2.9999999999999997e-05,1e-05,-0.00033999999999999997,-5e-05,7e-05,1e-05,-1e-05,4
13883,14374,-2.9999999999999997e-05,-2.9999999999999997e-05,1e-05,-0.00033999999999999997,-5e-05,7e-05,1e-05,-1e-05,4
13884,14375,-2.9999999999999997e-05,-2.9999999999999997e-05,1e-05,-0.00033999999999999997,-5e-05,7e-05,1e-05,-1e-05,4
13885,14376,-2.9999999999999997e-05,-2.9999999999999997e-05,1e-05,-0.00033999999999999997,-5e-05,7e-05,1e-05,-1e-05,4
13886,14377,-2.9999999999999997e-05,-2.9999999999999997e-05,1e-05,-0.00033999999999999997,-5e-05,7e-05,1e-05,-1e-05,4
13887,14378,-2.9999999999999997e-05,-2.9999999999999997e-05,1e-05,-0.00033999999999999997,-5e-05,7e-05,1e-05,-1e-05,4
13888,14379,-2.9999999999999997e-05,-2.9999999999999997e-05,1e-05,-0.00033999999999999997,-5e-05,7e-05,1e-05,-1e-05,4
13889,14380,-2.9999999999999997e-05,-2.9999999999999997e-05,1e-05,-0.00033999999999999997,-5e-05,7e-05,1e-05,-1e-05,4
13890,14381,-2.9999999999999997e-05,-2.9999999999999997e-05,1e-05,-0.00033999999999999997,-5e-05,7e-05,1e-05,-1e-05,4
13891,14382,-2.9999999999999997e-05,-2.9999999999999997e-05,1e-05,-0.00033999999999999997,-5e-05,7e-05,1e-05,-1e-05,4
13892,14383,-2.9999999999999997e-05,-2.9999999999999997e-05,1e-05,-0.00033999999999999997,-5e-05,7e-05,1e-05,-1e-05,4
13893,14384,-2.9999999999999997e-05,-2.9999999999999997e-05,1e-05,-0.00033999999999999997,-5e-05,7e-05,1e-05,-1e-05,4
13894,14385,-2.9999999999999997e-05,-2.9999999999999997e-05,1e-05,-0.00033999999999999997,-5e-05,7e-05,1e-05,-1e-05,4
13895,14387,-2.9999999999999997e-05,-2.9999999999999997e-05,1e-05,-0.00033999999999999997,-5e-05,7e-05,1e-05,-1e-05,4
13896,14389,-8e-05,-0.00015,-0.00023999999999999998,-0.0005200000000000001,-1e-05,-0.00014,-0.00014,-0.00011,4
13897,14390,-8e-05,-0.00015,-0.00023999999999999998,-0.0005200000000000001,-1e-05,-0.00014,-0.00014,-0.00011,4
13898,14391,-8e-05,-0.00015,-0.00023999999999999998,-0.0005200000000000001,-1e-05,-0.00014,-0.00014,-0.00011,4
13899,14392,-8e-05,-0.00015,-0.00023999999999999998,-0.0005200000000000001,-1e-05,-0.00014,-0.00014,-0.00011,4
13900,14393,1e-05,0.0,0.00013000000000000002,0.00041,0.00064,0.00022,5e-05,1e-05,4
13901,14394,2.9999999999999997e-05,2.9999999999999997e-05,0.00014,0.00025,0.00031,-0.00016,0.0,2.9999999999999997e-05,4
13902,14395,2.9999999999999997e-05,2.9999999999999997e-05,0.00014,0.00025,0.00031,-0.00016,0.0,2.9999999999999997e-05,4
13903,14396,2.9999999999999997e-05,2.9999999999999997e-05,0.00014,0.00025,0.00031,-0.00016,0.0,2.9999999999999997e-05,4
13904,14397,2.9999999999999997e-05,2.9999999999999997e-05,0.00014,0.00025,0.00031,-0.00016,0.0,2.9999999999999997e-05,4
13905,14398,2.9999999999999997e-05,2.9999999999999997e-05,0.00014,0.00025,0.00031,-0.00016,0.0,2.9999999999999997e-05,4
13906,14399,2.9999999999999997e-05,2.9999999999999997e-05,0.00014,0.00025,0.00031,-0.00016,0.0,2.9999999999999997e-05,4
13907,14400,2.9999999999999997e-05,2.9999999999999997e-05,0.00014,0.00025,0.00031,-0.00016,0.0,2.9999999999999997e-05,4
13908,14401,2.9999999999999997e-05,2.9999999999999997e-05,0.00014,0.00025,0.00031,-0.00016,0.0,2.9999999999999997e-05,4
13909,14402,2.9999999999999997e-05,2.9999999999999997e-05,0.00014,0.00025,0.00031,-0.00016,0.0,2.9999999999999997e-05,4
13910,14403,2.9999999999999997e-05,2.9999999999999997e-05,0.00014,0.00025,0.00031,-0.00016,0.0,2.9999999999999997e-05,4
13911,14404,2.9999999999999997e-05,2.9999999999999997e-05,0.00014,0.00025,0.00031,-0.00016,0.0,2.9999999999999997e-05,4
13912,14405,2.9999999999999997e-05,2.9999999999999997e-05,0.00014,0.00025,0.00031,-0.00016,0.0,2.9999999999999997e-05,4
13913,14406,2.9999999999999997e-05,2.9999999999999997e-05,0.00014,0.00025,0.00031,-0.00016,0.0,2.9999999999999997e-05,4
13914,14407,2.9999999999999997e-05,2.9999999999999997e-05,0.00014,0.00025,0.00031,-0.00016,0.0,2.9999999999999997e-05,4
13915,14408,2.9999999999999997e-05,2.9999999999999997e-05,0.00014,0.00025,0.00031,-0.00016,0.0,2.9999999999999997e-05,4
13916,14409,2.9999999999999997e-05,2.9999999999999997e-05,0.00014,0.00025,0.00031,-0.00016,0.0,2.9999999999999997e-05,4
13917,14410,2.9999999999999997e-05,2.9999999999999997e-05,0.00014,0.00025,0.00031,-0.00016,0.0,2.9999999999999997e-05,4
13918,14411,2.9999999999999997e-05,2.9999999999999997e-05,0.00014,0.00025,0.00031,-0.00016,0.0,2.9999999999999997e-05,4
13919,14412,2.9999999999999997e-05,2.9999999999999997e-05,0.00014,0.00025,0.00031,-0.00016,0.0,2.9999999999999997e-05,4
13920,14413,2.9999999999999997e-05,2.9999999999999997e-05,0.00014,0.00025,0.00031,-0.00016,0.0,2.9999999999999997e-05,4
13921,14414,2.9999999999999997e-05,2.9999999999999997e-05,0.00014,0.00025,0.00031,-0.00016,0.0,2.9999999999999997e-05,4
13922,14415,-8e-05,-0.00011,-8e-05,0.0,-0.00053,-0.00022,-8e-05,-8e-05,4
13923,14416,0.0,-4e-05,-0.00045,-0.00108,0.0005200000000000001,-5e-05,1e-05,2e-05,4
13924,14417,0.0,-4e-05,-0.00045,-0.00108,0.0005200000000000001,-5e-05,1e-05,2e-05,4
13925,14418,0.0,-4e-05,-0.00045,-0.00108,0.0005200000000000001,-5e-05,1e-05,2e-05,4
13926,14419,0.0,-4e-05,-0.00045,-0.00108,0.0005200000000000001,-5e-05,1e-05,2e-05,4
13927,14421,0.0,-4e-05,-0.00045,-0.00108,0.0005200000000000001,-5e-05,1e-05,2e-05,4
13928,14422,0.0,-4e-05,-0.00045,-0.00108,0.0005200000000000001,-5e-05,1e-05,2e-05,4
13929,14423,0.0,-4e-05,-0.00045,-0.00108,0.0005200000000000001,-5e-05,1e-05,2e-05,4
13930,14424,0.0,-4e-05,-0.00045,-0.00108,0.0005200000000000001,-5e-05,1e-05,2e-05,4
13931,14425,0.0,-4e-05,-0.00045,-0.00108,0.0005200000000000001,-5e-05,1e-05,2e-05,4
13932,14426,0.0,-4e-05,-0.00045,-0.00108,0.0005200000000000001,-5e-05,1e-05,2e-05,4
13933,14427,0.0,-4e-05,-0.00045,-0.00108,0.0005200000000000001,-5e-05,1e-05,2e-05,4
13934,14428,0.0,-4e-05,-0.00045,-0.00108,0.0005200000000000001,-5e-05,1e-05,2e-05,4
13935,14429,0.0,-4e-05,-0.00045,-0.00108,0.0005200000000000001,-5e-05,1e-05,2e-05,4
13936,14430,0.0,-4e-05,-0.00045,-0.00108,0.0005200000000000001,-5e-05,1e-05,2e-05,4
13937,14431,0.0,-4e-05,-0.00045,-0.00108,0.0005200000000000001,-5e-05,1e-05,2e-05,4
13938,14432,0.0,-4e-05,-0.00045,-0.00108,0.0005200000000000001,-5e-05,1e-05,2e-05,4
13939,14433,0.0,-4e-05,-0.00045,-0.00108,0.0005200000000000001,-5e-05,1e-05,2e-05,4
13940,14434,0.0,-4e-05,-0.00045,-0.00108,0.0005200000000000001,-5e-05,1e-05,2e-05,4
13941,14435,0.0,-4e-05,-0.00045,-0.00108,0.0005200000000000001,-5e-05,1e-05,2e-05,4
13942,14436,0.0,-4e-05,-0.00045,-0.00108,0.0005200000000000001,-5e-05,1e-05,2e-05,4
13943,14438,0.0,-4e-05,-0.00045,-0.00108,0.0005200000000000001,-5e-05,1e-05,2e-05,4
13944,14439,-0.00013000000000000002,-0.00013000000000000002,-0.00021,-0.0004,-0.00128,-0.00037999999999999997,-0.00022999999999999998,-0.00016,4
13945,14440,-0.00013000000000000002,-0.00013000000000000002,-0.00021,-0.0004,-0.00128,-0.00037999999999999997,-0.00022999999999999998,-0.00016,4
13946,14441,-0.00013000000000000002,-0.00013000000000000002,-0.00021,-0.0004,-0.00128,-0.00037999999999999997,-0.00022999999999999998,-0.00016,4
13947,14442,-0.00013000000000000002,-0.00013000000000000002,-0.00021,-0.0004,-0.00128,-0.00037999999999999997,-0.00022999999999999998,-0.00016,4
13948,14443,-0.00013000000000000002,-0.00013000000000000002,-0.00021,-0.0004,-0.00128,-0.00037999999999999997,-0.00022999999999999998,-0.00016,4
13949,14444,-0.00013000000000000002,-0.00013000000000000002,-0.00021,-0.0004,-0.00128,-0.00037999999999999997,-0.00022999999999999998,-0.00016,4
13950,14445,-0.00013000000000000002,-0.00013000000000000002,-0.00021,-0.0004,-0.00128,-0.00037999999999999997,-0.00022999999999999998,-0.00016,4
13951,14446,-0.00013000000000000002,-0.00013000000000000002,-0.00021,-0.0004,-0.00128,-0.00037999999999999997,-0.00022999999999999998,-0.00016,4
13952,14447,-0.00013000000000000002,-0.00013000000000000002,-0.00021,-0.0004,-0.00128,-0.00037999999999999997,-0.00022999999999999998,-0.00016,4
13953,14448,-0.00013000000000000002,-0.00013000000000000002,-0.00021,-0.0004,-0.00128,-0.00037999999999999997,-0.00022999999999999998,-0.00016,4
13954,14449,-0.00013000000000000002,-0.00013000000000000002,-0.00021,-0.0004,-0.00128,-0.00037999999999999997,-0.00022999999999999998,-0.00016,4
13955,14450,-0.00013000000000000002,-0.00013000000000000002,-0.00021,-0.0004,-0.00128,-0.00037999999999999997,-0.00022999999999999998,-0.00016,4
13956,14451,-0.00013000000000000002,-0.00013000000000000002,-0.00021,-0.0004,-0.00128,-0.00037999999999999997,-0.00022999999999999998,-0.00016,4
13957,14452,-0.00013000000000000002,-0.00013000000000000002,-0.00021,-0.0004,-0.00128,-0.00037999999999999997,-0.00022999999999999998,-0.00016,4
13958,14453,-0.00013000000000000002,-0.00013000000000000002,-0.00021,-0.0004,-0.00128,-0.00037999999999999997,-0.00022999999999999998,-0.00016,4
13959,14454,-4e-05,-2.9999999999999997e-05,0.00013000000000000002,0.0005099999999999999,-0.0007,-0.00013000000000000002,-0.0001,-7e-05,4
13960,14455,-4e-05,-2.9999999999999997e-05,0.00013000000000000002,0.0005099999999999999,-0.0007,-0.00013000000000000002,-0.0001,-7e-05,4
13961,14456,-4e-05,-2.9999999999999997e-05,0.00013000000000000002,0.0005099999999999999,-0.0007,-0.00013000000000000002,-0.0001,-7e-05,4
13962,14457,-4e-05,-2.9999999999999997e-05,0.00013000000000000002,0.0005099999999999999,-0.0007,-0.00013000000000000002,-0.0001,-7e-05,4
13963,14458,-4e-05,-2.9999999999999997e-05,0.00013000000000000002,0.0005099999999999999,-0.0007,-0.00013000000000000002,-0.0001,-7e-05,4
13964,14459,-4e-05,-2.9999999999999997e-05,0.00013000000000000002,0.0005099999999999999,-0.0007,-0.00013000000000000002,-0.0001,-7e-05,4
13965,14460,-4e-05,-2.9999999999999997e-05,0.00013000000000000002,0.0005099999999999999,-0.0007,-0.00013000000000000002,-0.0001,-7e-05,4
13966,14461,-4e-05,-2.9999999999999997e-05,0.00013000000000000002,0.0005099999999999999,-0.0007,-0.00013000000000000002,-0.0001,-7e-05,4
13967,14462,-4e-05,-2.9999999999999997e-05,0.00013000000000000002,0.0005099999999999999,-0.0007,-0.00013000000000000002,-0.0001,-7e-05,4
13968,14463,-4e-05,-2.9999999999999997e-05,0.00013000000000000002,0.0005099999999999999,-0.0007,-0.00013000000000000002,-0.0001,-7e-05,4
13969,14464,-4e-05,-2.9999999999999997e-05,0.00013000000000000002,0.0005099999999999999,-0.0007,-0.00013000000000000002,-0.0001,-7e-05,4
13970,14465,-4e-05,-2.9999999999999997e-05,0.00013000000000000002,0.0005099999999999999,-0.0007,-0.00013000000000000002,-0.0001,-7e-05,4
13971,14466,-4e-05,-2.9999999999999997e-05,0.00013000000000000002,0.0005099999999999999,-0.0007,-0.00013000000000000002,-0.0001,-7e-05,4
13972,14467,-4e-05,-2.9999999999999997e-05,0.00013000000000000002,0.0005099999999999999,-0.0007,-0.00013000000000000002,-0.0001,-7e-05,4
13973,14468,-4e-05,-2.9999999999999997e-05,0.00013000000000000002,0.0005099999999999999,-0.0007,-0.00013000000000000002,-0.0001,-7e-05,4
13974,14469,-4e-05,-2.9999999999999997e-05,0.00013000000000000002,0.0005099999999999999,-0.0007,-0.00013000000000000002,-0.0001,-7e-05,4
13975,14470,-4e-05,-2.9999999999999997e-05,0.00013000000000000002,0.0005099999999999999,-0.0007,-0.00013000000000000002,-0.0001,-7e-05,4
13976,14471,-4e-05,-2.9999999999999997e-05,0.00013000000000000002,0.0005099999999999999,-0.0007,-0.00013000000000000002,-0.0001,-7e-05,4
13977,14472,-4e-05,-2.9999999999999997e-05,0.00013000000000000002,0.0005099999999999999,-0.0007,-0.00013000000000000002,-0.0001,-7e-05,4
13978,14473,-4e-05,-2.9999999999999997e-05,0.00013000000000000002,0.0005099999999999999,-0.0007,-0.00013000000000000002,-0.0001,-7e-05,4
13979,14474,-4e-05,-2.9999999999999997e-05,0.00013000000000000002,0.0005099999999999999,-0.0007,-0.00013000000000000002,-0.0001,-7e-05,4
13980,14475,-4e-05,-2.9999999999999997e-05,0.00013000000000000002,0.0005099999999999999,-0.0007,-0.00013000000000000002,-0.0001,-7e-05,4
13981,14476,-4e-05,-2.9999999999999997e-05,0.00013000000000000002,0.0005099999999999999,-0.0007,-0.00013000000000000002,-0.0001,-7e-05,4
13982,14477,-4e-05,-2.9999999999999997e-05,0.00013000000000000002,0.0005099999999999999,-0.0007,-0.00013000000000000002,-0.0001,-7e-05,4
13983,14478,-4e-05,-2.9999999999999997e-05,0.00013000000000000002,0.0005099999999999999,-0.0007,-0.00013000000000000002,-0.0001,-7e-05,4
13984,14479,-4e-05,-2.9999999999999997e-05,0.00013000000000000002,0.0005099999999999999,-0.0007,-0.00013000000000000002,-0.0001,-7e-05,4
13985,14480,-4e-05,-2.9999999999999997e-05,0.00013000000000000002,0.0005099999999999999,-0.0007,-0.00013000000000000002,-0.0001,-7e-05,4
13986,14481,-4e-05,-2.9999999999999997e-05,0.00013000000000000002,0.0005099999999999999,-0.0007,-0.00013000000000000002,-0.0001,-7e-05,4
13987,14482,-4e-05,-2.9999999999999997e-05,0.00013000000000000002,0.0005099999999999999,-0.0007,-0.00013000000000000002,-0.0001,-7e-05,4
13988,14483,-4e-05,-2.9999999999999997e-05,0.00013000000000000002,0.0005099999999999999,-0.0007,-0.00013000000000000002,-0.0001,-7e-05,4
13989,14484,2.9999999999999997e-05,7e-05,0.00016999999999999999,0.00041,0.00055,0.00037,0.00015,8e-05,4
13990,14485,-2.9999999999999997e-05,0.0,0.00011999999999999999,0.00059,8e-05,-2e-05,-2.9999999999999997e-05,-2e-05,4
13991,14486,-2.9999999999999997e-05,0.0,0.00011999999999999999,0.00059,8e-05,-2e-05,-2.9999999999999997e-05,-2e-05,4
13992,14488,-2.9999999999999997e-05,0.0,0.00011999999999999999,0.00059,8e-05,-2e-05,-2.9999999999999997e-05,-2e-05,4
13993,14489,-2.9999999999999997e-05,0.0,0.00011999999999999999,0.00059,8e-05,-2e-05,-2.9999999999999997e-05,-2e-05,4
13994,14490,2e-05,0.0,-8e-05,-0.00011,-0.00045,-0.00013000000000000002,-2.9999999999999997e-05,-1e-05,4
13995,14491,2e-05,0.0,-8e-05,-0.00011,-0.00045,-0.00013000000000000002,-2.9999999999999997e-05,-1e-05,4
13996,14492,2e-05,0.0,-8e-05,-0.00011,-0.00045,-0.00013000000000000002,-2.9999999999999997e-05,-1e-05,4
13997,14493,2e-05,0.0,-8e-05,-0.00011,-0.00045,-0.00013000000000000002,-2.9999999999999997e-05,-1e-05,4
13998,14494,2e-05,0.0,-8e-05,-0.00011,-0.00045,-0.00013000000000000002,-2.9999999999999997e-05,-1e-05,4
13999,14495,2e-05,0.0,-8e-05,-0.00011,-0.00045,-0.00013000000000000002,-2.9999999999999997e-05,-1e-05,4
14000,14496,2e-05,0.0,-8e-05,-0.00011,-0.00045,-0.00013000000000000002,-2.9999999999999997e-05,-1e-05,4
14001,14497,2e-05,0.0,-8e-05,-0.00011,-0.00045,-0.00013000000000000002,-2.9999999999999997e-05,-1e-05,4
14002,14498,2e-05,0.0,-8e-05,-0.00011,-0.00045,-0.00013000000000000002,-2.9999999999999997e-05,-1e-05,4
14003,14499,2e-05,0.0,-8e-05,-0.00011,-0.00045,-0.00013000000000000002,-2.9999999999999997e-05,-1e-05,4
14004,14500,2e-05,0.0,-8e-05,-0.00011,-0.00045,-0.00013000000000000002,-2.9999999999999997e-05,-1e-05,4
14005,14501,2e-05,0.0,-8e-05,-0.00011,-0.00045,-0.00013000000000000002,-2.9999999999999997e-05,-1e-05,4
14006,14502,2e-05,0.0,-8e-05,-0.00011,-0.00045,-0.00013000000000000002,-2.9999999999999997e-05,-1e-05,4
14007,14503,2e-05,0.0,-8e-05,-0.00011,-0.00045,-0.00013000000000000002,-2.9999999999999997e-05,-1e-05,4
14008,14504,2e-05,0.0,-8e-05,-0.00011,-0.00045,-0.00013000000000000002,-2.9999999999999997e-05,-1e-05,4
14009,14505,2e-05,0.0,-8e-05,-0.00011,-0.00045,-0.00013000000000000002,-2.9999999999999997e-05,-1e-05,4
14010,14506,2e-05,0.0,-8e-05,-0.00011,-0.00045,-0.00013000000000000002,-2.9999999999999997e-05,-1e-05,4
14011,14507,2e-05,0.0,-8e-05,-0.00011,-0.00045,-0.00013000000000000002,-2.9999999999999997e-05,-1e-05,4
14012,14508,2e-05,0.0,-8e-05,-0.00011,-0.00045,-0.00013000000000000002,-2.9999999999999997e-05,-1e-05,4
14013,14509,2e-05,0.0,-8e-05,-0.00011,-0.00045,-0.00013000000000000002,-2.9999999999999997e-05,-1e-05,4
14014,14510,2e-05,0.0,-8e-05,-0.00011,-0.00045,-0.00013000000000000002,-2.9999999999999997e-05,-1e-05,4
14015,14511,2e-05,0.0,-8e-05,-0.00011,-0.00045,-0.00013000000000000002,-2.9999999999999997e-05,-1e-05,4
14016,14512,2e-05,0.0,-8e-05,-0.00011,-0.00045,-0.00013000000000000002,-2.9999999999999997e-05,-1e-05,4
14017,14513,2e-05,0.0,-8e-05,-0.00011,-0.00045,-0.00013000000000000002,-2.9999999999999997e-05,-1e-05,4
14018,14514,2e-05,0.0,-8e-05,-0.00011,-0.00045,-0.00013000000000000002,-2.9999999999999997e-05,-1e-05,4
14019,14515,2e-05,0.0,-8e-05,-0.00011,-0.00045,-0.00013000000000000002,-2.9999999999999997e-05,-1e-05,4
14020,14516,2e-05,0.0,-8e-05,-0.00011,-0.00045,-0.00013000000000000002,-2.9999999999999997e-05,-1e-05,4
14021,14517,2e-05,0.0,-8e-05,-0.00011,-0.00045,-0.00013000000000000002,-2.9999999999999997e-05,-1e-05,4
14022,14518,2e-05,0.0,-8e-05,-0.00011,-0.00045,-0.00013000000000000002,-2.9999999999999997e-05,-1e-05,4
14023,14519,2e-05,0.0,-8e-05,-0.00011,-0.00045,-0.00013000000000000002,-2.9999999999999997e-05,-1e-05,4
14024,14520,2e-05,0.0,-8e-05,-0.00011,-0.00045,-0.00013000000000000002,-2.9999999999999997e-05,-1e-05,4
14025,14521,2e-05,0.0,-8e-05,-0.00011,-0.00045,-0.00013000000000000002,-2.9999999999999997e-05,-1e-05,4
14026,14522,2e-05,0.0,-8e-05,-0.00011,-0.00045,-0.00013000000000000002,-2.9999999999999997e-05,-1e-05,4
14027,14523,-0.00011999999999999999,-0.0002,-0.00022,-0.00023999999999999998,-0.00086,-0.00025,-0.00021,-0.00016,4
14028,14524,-4e-05,-4e-05,-9e-05,-0.00026000000000000003,0.00011,4e-05,0.0,-2e-05,4
14029,14525,-2e-05,-2e-05,-1e-05,-5.9999999999999995e-05,0.00027,-0.00011999999999999999,-5.9999999999999995e-05,-2.9999999999999997e-05,4
14030,14526,-2e-05,-2e-05,-1e-05,-5.9999999999999995e-05,0.00027,-0.00011999999999999999,-5.9999999999999995e-05,-2.9999999999999997e-05,4
14031,14527,-2e-05,-2e-05,-1e-05,-5.9999999999999995e-05,0.00027,-0.00011999999999999999,-5.9999999999999995e-05,-2.9999999999999997e-05,4
14032,14528,-2e-05,-2e-05,-1e-05,-5.9999999999999995e-05,0.00027,-0.00011999999999999999,-5.9999999999999995e-05,-2.9999999999999997e-05,4
14033,14529,-2e-05,-2e-05,-1e-05,-5.9999999999999995e-05,0.00027,-0.00011999999999999999,-5.9999999999999995e-05,-2.9999999999999997e-05,4
14034,14530,-2e-05,-2e-05,-1e-05,-5.9999999999999995e-05,0.00027,-0.00011999999999999999,-5.9999999999999995e-05,-2.9999999999999997e-05,4
14035,14531,-2e-05,-2e-05,-1e-05,-5.9999999999999995e-05,0.00027,-0.00011999999999999999,-5.9999999999999995e-05,-2.9999999999999997e-05,4
14036,14532,-2e-05,-2e-05,-1e-05,-5.9999999999999995e-05,0.00027,-0.00011999999999999999,-5.9999999999999995e-05,-2.9999999999999997e-05,4
14037,14533,-2e-05,-2e-05,-1e-05,-5.9999999999999995e-05,0.00027,-0.00011999999999999999,-5.9999999999999995e-05,-2.9999999999999997e-05,4
14038,14534,-2e-05,-2e-05,-1e-05,-5.9999999999999995e-05,0.00027,-0.00011999999999999999,-5.9999999999999995e-05,-2.9999999999999997e-05,4
14039,14535,-1e-05,1e-05,5.9999999999999995e-05,0.00033999999999999997,-0.00043,-0.00013000000000000002,-7e-05,-2.9999999999999997e-05,4
14040,14537,9e-05,9e-05,-0.00011,-0.0003,0.0007599999999999999,0.00011,0.00016,0.00011999999999999999,4
14041,14539,9e-05,9e-05,-0.00011,-0.0003,0.0007599999999999999,0.00011,0.00016,0.00011999999999999999,4
14042,14541,9e-05,9e-05,-0.00011,-0.0003,0.0007599999999999999,0.00011,0.00016,0.00011999999999999999,4
14043,14542,9e-05,9e-05,-0.00011,-0.0003,0.0007599999999999999,0.00011,0.00016,0.00011999999999999999,4
14044,14543,9e-05,9e-05,-0.00011,-0.0003,0.0007599999999999999,0.00011,0.00016,0.00011999999999999999,4
14045,14544,9e-05,9e-05,-0.00011,-0.0003,0.0007599999999999999,0.00011,0.00016,0.00011999999999999999,4
14046,14545,9e-05,9e-05,-0.00011,-0.0003,0.0007599999999999999,0.00011,0.00016,0.00011999999999999999,4
14047,14546,9e-05,9e-05,-0.00011,-0.0003,0.0007599999999999999,0.00011,0.00016,0.00011999999999999999,4
14048,14547,9e-05,9e-05,-0.00011,-0.0003,0.0007599999999999999,0.00011,0.00016,0.00011999999999999999,4
14049,14548,9e-05,9e-05,-0.00011,-0.0003,0.0007599999999999999,0.00011,0.00016,0.00011999999999999999,4
14050,14549,9e-05,9e-05,-0.00011,-0.0003,0.0007599999999999999,0.00011,0.00016,0.00011999999999999999,4
14051,14550,9e-05,9e-05,-0.00011,-0.0003,0.0007599999999999999,0.00011,0.00016,0.00011999999999999999,4
14052,14551,9e-05,9e-05,-0.00011,-0.0003,0.0007599999999999999,0.00011,0.00016,0.00011999999999999999,4
14053,14552,9e-05,9e-05,-0.00011,-0.0003,0.0007599999999999999,0.00011,0.00016,0.00011999999999999999,4
14054,14553,9e-05,9e-05,-0.00011,-0.0003,0.0007599999999999999,0.00011,0.00016,0.00011999999999999999,4
14055,14554,9e-05,9e-05,-0.00011,-0.0003,0.0007599999999999999,0.00011,0.00016,0.00011999999999999999,4
14056,14555,9e-05,9e-05,-0.00011,-0.0003,0.0007599999999999999,0.00011,0.00016,0.00011999999999999999,4
14057,14556,9e-05,9e-05,-0.00011,-0.0003,0.0007599999999999999,0.00011,0.00016,0.00011999999999999999,4
14058,14557,9e-05,9e-05,-0.00011,-0.0003,0.0007599999999999999,0.00011,0.00016,0.00011999999999999999,4
14059,14558,9e-05,9e-05,-0.00011,-0.0003,0.0007599999999999999,0.00011,0.00016,0.00011999999999999999,4
14060,14559,5e-05,4e-05,0.00013000000000000002,-2e-05,0.00016,0.0002,0.0001,5e-05,4
14061,14560,5e-05,4e-05,0.00013000000000000002,-2e-05,0.00016,0.0002,0.0001,5e-05,4
14062,14562,5e-05,4e-05,0.00013000000000000002,-2e-05,0.00016,0.0002,0.0001,5e-05,4
14063,14563,5e-05,4e-05,0.00013000000000000002,-2e-05,0.00016,0.0002,0.0001,5e-05,4
14064,14564,5e-05,4e-05,0.00013000000000000002,-2e-05,0.00016,0.0002,0.0001,5e-05,4
14065,14565,5e-05,4e-05,0.00013000000000000002,-2e-05,0.00016,0.0002,0.0001,5e-05,4
14066,14566,5e-05,4e-05,0.00013000000000000002,-2e-05,0.00016,0.0002,0.0001,5e-05,4
14067,14567,5e-05,4e-05,0.00013000000000000002,-2e-05,0.00016,0.0002,0.0001,5e-05,4
14068,14568,5e-05,4e-05,0.00013000000000000002,-2e-05,0.00016,0.0002,0.0001,5e-05,4
14069,14569,5e-05,4e-05,0.00013000000000000002,-2e-05,0.00016,0.0002,0.0001,5e-05,4
14070,14570,5e-05,4e-05,0.00013000000000000002,-2e-05,0.00016,0.0002,0.0001,5e-05,4
14071,14571,5e-05,4e-05,0.00013000000000000002,-2e-05,0.00016,0.0002,0.0001,5e-05,4
14072,14572,5e-05,4e-05,0.00013000000000000002,-2e-05,0.00016,0.0002,0.0001,5e-05,4
14073,14573,5e-05,4e-05,0.00013000000000000002,-2e-05,0.00016,0.0002,0.0001,5e-05,4
14074,14574,5e-05,4e-05,0.00013000000000000002,-2e-05,0.00016,0.0002,0.0001,5e-05,4
14075,14575,5e-05,4e-05,0.00013000000000000002,-2e-05,0.00016,0.0002,0.0001,5e-05,4
14076,14576,5e-05,4e-05,0.00013000000000000002,-2e-05,0.00016,0.0002,0.0001,5e-05,4
14077,14577,5e-05,4e-05,0.00013000000000000002,-2e-05,0.00016,0.0002,0.0001,5e-05,4
14078,14578,5e-05,4e-05,0.00013000000000000002,-2e-05,0.00016,0.0002,0.0001,5e-05,4
14079,14579,5e-05,4e-05,0.00013000000000000002,-2e-05,0.00016,0.0002,0.0001,5e-05,4
14080,14580,5e-05,4e-05,0.00013000000000000002,-2e-05,0.00016,0.0002,0.0001,5e-05,4
14081,14581,5e-05,4e-05,0.00013000000000000002,-2e-05,0.00016,0.0002,0.0001,5e-05,4
14082,14582,5e-05,4e-05,0.00013000000000000002,-2e-05,0.00016,0.0002,0.0001,5e-05,4
14083,14583,-0.00014,-0.00011999999999999999,-0.0001,0.00045,-0.00081,-0.00027,-0.00022,-0.00014,4
14084,14584,-0.00014,-0.00011999999999999999,-0.0001,0.00045,-0.00081,-0.00027,-0.00022,-0.00014,4
14085,14585,-0.00014,-0.00011999999999999999,-0.0001,0.00045,-0.00081,-0.00027,-0.00022,-0.00014,4
14086,14586,-0.00014,-0.00011999999999999999,-0.0001,0.00045,-0.00081,-0.00027,-0.00022,-0.00014,4
14087,14588,-0.00014,-0.00011999999999999999,-0.0001,0.00045,-0.00081,-0.00027,-0.00022,-0.00014,4
14088,14589,-0.00014,-0.00011999999999999999,-0.0001,0.00045,-0.00081,-0.00027,-0.00022,-0.00014,4
14089,14590,-0.00014,-0.00011999999999999999,-0.0001,0.00045,-0.00081,-0.00027,-0.00022,-0.00014,4
14090,14591,-0.00014,-0.00011999999999999999,-0.0001,0.00045,-0.00081,-0.00027,-0.00022,-0.00014,4
14091,14592,-0.00014,-0.00011999999999999999,-0.0001,0.00045,-0.00081,-0.00027,-0.00022,-0.00014,4
14092,14593,-0.00014,-0.00011999999999999999,-0.0001,0.00045,-0.00081,-0.00027,-0.00022,-0.00014,4
14093,14594,-0.00014,-0.00011999999999999999,-0.0001,0.00045,-0.00081,-0.00027,-0.00022,-0.00014,4
14094,14595,-0.00014,-0.00011999999999999999,-0.0001,0.00045,-0.00081,-0.00027,-0.00022,-0.00014,4
14095,14596,-0.00014,-0.00011999999999999999,-0.0001,0.00045,-0.00081,-0.00027,-0.00022,-0.00014,4
14096,14597,0.0,1e-05,0.00016999999999999999,0.00042,-0.00035,-2e-05,0.0,-2e-05,4
14097,14598,-4e-05,-5e-05,4e-05,0.00018999999999999998,-0.00043,-1e-05,-7e-05,-5.9999999999999995e-05,4
14098,14599,-4e-05,-5e-05,4e-05,0.00018999999999999998,-0.00043,-1e-05,-7e-05,-5.9999999999999995e-05,4
14099,14600,-4e-05,-5e-05,4e-05,0.00018999999999999998,-0.00043,-1e-05,-7e-05,-5.9999999999999995e-05,4
14100,14601,-4e-05,-5e-05,4e-05,0.00018999999999999998,-0.00043,-1e-05,-7e-05,-5.9999999999999995e-05,4
14101,14602,-4e-05,-5e-05,4e-05,0.00018999999999999998,-0.00043,-1e-05,-7e-05,-5.9999999999999995e-05,4
14102,14603,-4e-05,-5e-05,4e-05,0.00018999999999999998,-0.00043,-1e-05,-7e-05,-5.9999999999999995e-05,4
14103,14604,-4e-05,-5e-05,4e-05,0.00018999999999999998,-0.00043,-1e-05,-7e-05,-5.9999999999999995e-05,4
14104,14605,-4e-05,-5e-05,4e-05,0.00018999999999999998,-0.00043,-1e-05,-7e-05,-5.9999999999999995e-05,4
14105,14606,-4e-05,-5e-05,4e-05,0.00018999999999999998,-0.00043,-1e-05,-7e-05,-5.9999999999999995e-05,4
14106,14607,-4e-05,-5e-05,4e-05,0.00018999999999999998,-0.00043,-1e-05,-7e-05,-5.9999999999999995e-05,4
14107,14608,-4e-05,-5e-05,4e-05,0.00018999999999999998,-0.00043,-1e-05,-7e-05,-5.9999999999999995e-05,4
14108,14609,-4e-05,-5e-05,4e-05,0.00018999999999999998,-0.00043,-1e-05,-7e-05,-5.9999999999999995e-05,4
14109,14610,-4e-05,-5e-05,4e-05,0.00018999999999999998,-0.00043,-1e-05,-7e-05,-5.9999999999999995e-05,4
14110,14611,-4e-05,-5e-05,4e-05,0.00018999999999999998,-0.00043,-1e-05,-7e-05,-5.9999999999999995e-05,4
14111,14612,-4e-05,-5e-05,4e-05,0.00018999999999999998,-0.00043,-1e-05,-7e-05,-5.9999999999999995e-05,4
14112,14613,-4e-05,-5e-05,4e-05,0.00018999999999999998,-0.00043,-1e-05,-7e-05,-5.9999999999999995e-05,4
14113,14614,-4e-05,-5e-05,4e-05,0.00018999999999999998,-0.00043,-1e-05,-7e-05,-5.9999999999999995e-05,4
14114,14615,-4e-05,-5e-05,4e-05,0.00018999999999999998,-0.00043,-1e-05,-7e-05,-5.9999999999999995e-05,4
14115,14616,-4e-05,-5e-05,4e-05,0.00018999999999999998,-0.00043,-1e-05,-7e-05,-5.9999999999999995e-05,4
14116,14617,-4e-05,-5e-05,4e-05,0.00018999999999999998,-0.00043,-1e-05,-7e-05,-5.9999999999999995e-05,4
14117,14618,-4e-05,-5e-05,4e-05,0.00018999999999999998,-0.00043,-1e-05,-7e-05,-5.9999999999999995e-05,4
14118,14619,-2.9999999999999997e-05,-9e-05,-9e-05,-0.0001,-5.9999999999999995e-05,7e-05,-4e-05,-4e-05,4
14119,14620,-2.9999999999999997e-05,-9e-05,-9e-05,-0.0001,-5.9999999999999995e-05,7e-05,-4e-05,-4e-05,4
14120,14621,-2.9999999999999997e-05,-9e-05,-9e-05,-0.0001,-5.9999999999999995e-05,7e-05,-4e-05,-4e-05,4
14121,14622,-2.9999999999999997e-05,-9e-05,-9e-05,-0.0001,-5.9999999999999995e-05,7e-05,-4e-05,-4e-05,4
14122,14623,-2.9999999999999997e-05,-9e-05,-9e-05,-0.0001,-5.9999999999999995e-05,7e-05,-4e-05,-4e-05,4
14123,14624,-2.9999999999999997e-05,-9e-05,-9e-05,-0.0001,-5.9999999999999995e-05,7e-05,-4e-05,-4e-05,4
14124,14625,-2.9999999999999997e-05,-9e-05,-9e-05,-0.0001,-5.9999999999999995e-05,7e-05,-4e-05,-4e-05,4
14125,14626,-2.9999999999999997e-05,-9e-05,-9e-05,-0.0001,-5.9999999999999995e-05,7e-05,-4e-05,-4e-05,4
14126,14627,-2.9999999999999997e-05,-9e-05,-9e-05,-0.0001,-5.9999999999999995e-05,7e-05,-4e-05,-4e-05,4
14127,14628,-2.9999999999999997e-05,-9e-05,-9e-05,-0.0001,-5.9999999999999995e-05,7e-05,-4e-05,-4e-05,4
14128,14629,-2.9999999999999997e-05,-9e-05,-9e-05,-0.0001,-5.9999999999999995e-05,7e-05,-4e-05,-4e-05,4
14129,14630,-2.9999999999999997e-05,-9e-05,-9e-05,-0.0001,-5.9999999999999995e-05,7e-05,-4e-05,-4e-05,4
14130,14631,-2.9999999999999997e-05,-9e-05,-9e-05,-0.0001,-5.9999999999999995e-05,7e-05,-4e-05,-4e-05,4
14131,14632,-2.9999999999999997e-05,-9e-05,-9e-05,-0.0001,-5.9999999999999995e-05,7e-05,-4e-05,-4e-05,4
14132,14633,-2e-05,-7e-05,-0.00026000000000000003,-0.00037999999999999997,0.00023999999999999998,0.00022999999999999998,5e-05,-1e-05,4
14133,14634,-5.9999999999999995e-05,-8e-05,4e-05,0.00033999999999999997,-0.00047000000000000004,-0.00022999999999999998,-0.0001,-9e-05,4
14134,14635,-5.9999999999999995e-05,-8e-05,4e-05,0.00033999999999999997,-0.00047000000000000004,-0.00022999999999999998,-0.0001,-9e-05,4
14135,14636,-5.9999999999999995e-05,-8e-05,4e-05,0.00033999999999999997,-0.00047000000000000004,-0.00022999999999999998,-0.0001,-9e-05,4
14136,14638,-5.9999999999999995e-05,-8e-05,4e-05,0.00033999999999999997,-0.00047000000000000004,-0.00022999999999999998,-0.0001,-9e-05,4
14137,14639,-5.9999999999999995e-05,-8e-05,4e-05,0.00033999999999999997,-0.00047000000000000004,-0.00022999999999999998,-0.0001,-9e-05,4
14138,14640,-5.9999999999999995e-05,-8e-05,4e-05,0.00033999999999999997,-0.00047000000000000004,-0.00022999999999999998,-0.0001,-9e-05,4
14139,14641,-5.9999999999999995e-05,-8e-05,4e-05,0.00033999999999999997,-0.00047000000000000004,-0.00022999999999999998,-0.0001,-9e-05,4
14140,14642,-5.9999999999999995e-05,-8e-05,4e-05,0.00033999999999999997,-0.00047000000000000004,-0.00022999999999999998,-0.0001,-9e-05,4
14141,14643,-5.9999999999999995e-05,-8e-05,4e-05,0.00033999999999999997,-0.00047000000000000004,-0.00022999999999999998,-0.0001,-9e-05,4
14142,14644,-5.9999999999999995e-05,-8e-05,4e-05,0.00033999999999999997,-0.00047000000000000004,-0.00022999999999999998,-0.0001,-9e-05,4
14143,14645,-5.9999999999999995e-05,-8e-05,4e-05,0.00033999999999999997,-0.00047000000000000004,-0.00022999999999999998,-0.0001,-9e-05,4
14144,14646,-5.9999999999999995e-05,-8e-05,4e-05,0.00033999999999999997,-0.00047000000000000004,-0.00022999999999999998,-0.0001,-9e-05,4
14145,14647,-5.9999999999999995e-05,-8e-05,4e-05,0.00033999999999999997,-0.00047000000000000004,-0.00022999999999999998,-0.0001,-9e-05,4
14146,14648,-5.9999999999999995e-05,-8e-05,4e-05,0.00033999999999999997,-0.00047000000000000004,-0.00022999999999999998,-0.0001,-9e-05,4
14147,14649,-5.9999999999999995e-05,-8e-05,4e-05,0.00033999999999999997,-0.00047000000000000004,-0.00022999999999999998,-0.0001,-9e-05,4
14148,14650,-5.9999999999999995e-05,-8e-05,4e-05,0.00033999999999999997,-0.00047000000000000004,-0.00022999999999999998,-0.0001,-9e-05,4
14149,14651,-5.9999999999999995e-05,-8e-05,4e-05,0.00033999999999999997,-0.00047000000000000004,-0.00022999999999999998,-0.0001,-9e-05,4
14150,14652,-5.9999999999999995e-05,-8e-05,4e-05,0.00033999999999999997,-0.00047000000000000004,-0.00022999999999999998,-0.0001,-9e-05,4
14151,14653,-5.9999999999999995e-05,-8e-05,4e-05,0.00033999999999999997,-0.00047000000000000004,-0.00022999999999999998,-0.0001,-9e-05,4
14152,14654,-5.9999999999999995e-05,-8e-05,4e-05,0.00033999999999999997,-0.00047000000000000004,-0.00022999999999999998,-0.0001,-9e-05,4
14153,14655,-5.9999999999999995e-05,-8e-05,4e-05,0.00033999999999999997,-0.00047000000000000004,-0.00022999999999999998,-0.0001,-9e-05,4
14154,14656,0.0001,0.00011999999999999999,0.00028,0.00041,0.0009400000000000001,0.0006,0.0002,0.0001,4
14155,14657,0.0001,0.00011999999999999999,0.00028,0.00041,0.0009400000000000001,0.0006,0.0002,0.0001,4
14156,14658,0.0001,0.00011999999999999999,0.00028,0.00041,0.0009400000000000001,0.0006,0.0002,0.0001,4
14157,14659,0.0001,0.00011999999999999999,0.00028,0.00041,0.0009400000000000001,0.0006,0.0002,0.0001,4
14158,14660,0.0001,0.00011999999999999999,0.00028,0.00041,0.0009400000000000001,0.0006,0.0002,0.0001,4
14159,14661,0.0001,0.00011999999999999999,0.00028,0.00041,0.0009400000000000001,0.0006,0.0002,0.0001,4
14160,14662,0.0001,0.00011999999999999999,0.00028,0.00041,0.0009400000000000001,0.0006,0.0002,0.0001,4
14161,14663,0.0,0.0,4e-05,-0.00011,2e-05,5.9999999999999995e-05,2.9999999999999997e-05,1e-05,4
14162,14664,0.0,0.0,4e-05,-0.00011,2e-05,5.9999999999999995e-05,2.9999999999999997e-05,1e-05,4
14163,14665,0.0,0.0,4e-05,-0.00011,2e-05,5.9999999999999995e-05,2.9999999999999997e-05,1e-05,4
14164,14666,0.0,0.0,4e-05,-0.00011,2e-05,5.9999999999999995e-05,2.9999999999999997e-05,1e-05,4
14165,14667,0.0,0.0,4e-05,-0.00011,2e-05,5.9999999999999995e-05,2.9999999999999997e-05,1e-05,4
14166,14668,0.0,0.0,4e-05,-0.00011,2e-05,5.9999999999999995e-05,2.9999999999999997e-05,1e-05,4
14167,14669,0.0,0.0,4e-05,-0.00011,2e-05,5.9999999999999995e-05,2.9999999999999997e-05,1e-05,4
14168,14670,0.0,0.0,4e-05,-0.00011,2e-05,5.9999999999999995e-05,2.9999999999999997e-05,1e-05,4
14169,14671,0.0,0.0,4e-05,-0.00011,2e-05,5.9999999999999995e-05,2.9999999999999997e-05,1e-05,4
14170,14672,0.0,0.0,4e-05,-0.00011,2e-05,5.9999999999999995e-05,2.9999999999999997e-05,1e-05,4
14171,14673,0.0,0.0,4e-05,-0.00011,2e-05,5.9999999999999995e-05,2.9999999999999997e-05,1e-05,4
14172,14674,0.0,0.0,4e-05,-0.00011,2e-05,5.9999999999999995e-05,2.9999999999999997e-05,1e-05,4
14173,14675,0.0,0.0,4e-05,-0.00011,2e-05,5.9999999999999995e-05,2.9999999999999997e-05,1e-05,4
14174,14676,0.0,0.0,4e-05,-0.00011,2e-05,5.9999999999999995e-05,2.9999999999999997e-05,1e-05,4
14175,14677,0.0,0.0,4e-05,-0.00011,2e-05,5.9999999999999995e-05,2.9999999999999997e-05,1e-05,4
14176,14678,1e-05,2.9999999999999997e-05,7e-05,2.9999999999999997e-05,0.0004,0.00014,5.9999999999999995e-05,2e-05,4
14177,14679,1e-05,2.9999999999999997e-05,7e-05,2.9999999999999997e-05,0.0004,0.00014,5.9999999999999995e-05,2e-05,4
14178,14680,2.9999999999999997e-05,5e-05,7e-05,-0.0001,0.0001,-1e-05,5e-05,2.9999999999999997e-05,4
14179,14681,2.9999999999999997e-05,5e-05,7e-05,-0.0001,0.0001,-1e-05,5e-05,2.9999999999999997e-05,4
14180,14682,2.9999999999999997e-05,5e-05,7e-05,-0.0001,0.0001,-1e-05,5e-05,2.9999999999999997e-05,4
14181,14683,2.9999999999999997e-05,5e-05,7e-05,-0.0001,0.0001,-1e-05,5e-05,2.9999999999999997e-05,4
14182,14684,2.9999999999999997e-05,5e-05,7e-05,-0.0001,0.0001,-1e-05,5e-05,2.9999999999999997e-05,4
14183,14685,2.9999999999999997e-05,5e-05,7e-05,-0.0001,0.0001,-1e-05,5e-05,2.9999999999999997e-05,4
14184,14686,2.9999999999999997e-05,5e-05,7e-05,-0.0001,0.0001,-1e-05,5e-05,2.9999999999999997e-05,4
14185,14689,2.9999999999999997e-05,5e-05,7e-05,-0.0001,0.0001,-1e-05,5e-05,2.9999999999999997e-05,4
14186,14690,2.9999999999999997e-05,5e-05,7e-05,-0.0001,0.0001,-1e-05,5e-05,2.9999999999999997e-05,4
14187,14691,2.9999999999999997e-05,5e-05,7e-05,-0.0001,0.0001,-1e-05,5e-05,2.9999999999999997e-05,4
14188,14692,2.9999999999999997e-05,5e-05,7e-05,-0.0001,0.0001,-1e-05,5e-05,2.9999999999999997e-05,4
14189,14693,-4e-05,-4e-05,-7e-05,-0.00035,-0.00033999999999999997,-0.00033999999999999997,-0.00011999999999999999,-5.9999999999999995e-05,4
14190,14694,4e-05,7e-05,8e-05,0.00032,2e-05,0.00016999999999999999,7e-05,5e-05,4
14191,14695,4e-05,7e-05,8e-05,0.00032,2e-05,0.00016999999999999999,7e-05,5e-05,4
14192,14696,4e-05,7e-05,8e-05,0.00032,2e-05,0.00016999999999999999,7e-05,5e-05,4
14193,14697,4e-05,7e-05,8e-05,0.00032,2e-05,0.00016999999999999999,7e-05,5e-05,4
14194,14698,4e-05,7e-05,8e-05,0.00032,2e-05,0.00016999999999999999,7e-05,5e-05,4
14195,14699,4e-05,7e-05,8e-05,0.00032,2e-05,0.00016999999999999999,7e-05,5e-05,4
14196,14700,4e-05,7e-05,8e-05,0.00032,2e-05,0.00016999999999999999,7e-05,5e-05,4
14197,14701,4e-05,7e-05,8e-05,0.00032,2e-05,0.00016999999999999999,7e-05,5e-05,4
14198,14702,4e-05,7e-05,8e-05,0.00032,2e-05,0.00016999999999999999,7e-05,5e-05,4
14199,14703,4e-05,7e-05,8e-05,0.00032,2e-05,0.00016999999999999999,7e-05,5e-05,4
14200,14704,4e-05,7e-05,8e-05,0.00032,2e-05,0.00016999999999999999,7e-05,5e-05,4
14201,14705,4e-05,7e-05,8e-05,0.00032,2e-05,0.00016999999999999999,7e-05,5e-05,4
14202,14706,4e-05,7e-05,8e-05,0.00032,2e-05,0.00016999999999999999,7e-05,5e-05,4
14203,14707,4e-05,7e-05,8e-05,0.00032,2e-05,0.00016999999999999999,7e-05,5e-05,4
14204,14708,4e-05,7e-05,8e-05,0.00032,2e-05,0.00016999999999999999,7e-05,5e-05,4
14205,14709,4e-05,7e-05,8e-05,0.00032,2e-05,0.00016999999999999999,7e-05,5e-05,4
14206,14710,4e-05,7e-05,8e-05,0.00032,2e-05,0.00016999999999999999,7e-05,5e-05,4
14207,14711,4e-05,7e-05,8e-05,0.00032,2e-05,0.00016999999999999999,7e-05,5e-05,4
14208,14712,4e-05,7e-05,8e-05,0.00032,2e-05,0.00016999999999999999,7e-05,5e-05,4
14209,14713,4e-05,7e-05,8e-05,0.00032,2e-05,0.00016999999999999999,7e-05,5e-05,4
14210,14714,4e-05,7e-05,8e-05,0.00032,2e-05,0.00016999999999999999,7e-05,5e-05,4
14211,14715,4e-05,7e-05,8e-05,0.00032,2e-05,0.00016999999999999999,7e-05,5e-05,4
14212,14716,4e-05,7e-05,8e-05,0.00032,2e-05,0.00016999999999999999,7e-05,5e-05,4
14213,14717,4e-05,7e-05,8e-05,0.00032,2e-05,0.00016999999999999999,7e-05,5e-05,4
14214,14718,4e-05,7e-05,8e-05,0.00032,2e-05,0.00016999999999999999,7e-05,5e-05,4
14215,14719,4e-05,7e-05,8e-05,0.00032,2e-05,0.00016999999999999999,7e-05,5e-05,4
14216,14720,4e-05,7e-05,8e-05,0.00032,2e-05,0.00016999999999999999,7e-05,5e-05,4
14217,14721,4e-05,7e-05,8e-05,0.00032,2e-05,0.00016999999999999999,7e-05,5e-05,4
14218,14722,4e-05,7e-05,8e-05,0.00032,2e-05,0.00016999999999999999,7e-05,5e-05,4
14219,14723,4e-05,7e-05,8e-05,0.00032,2e-05,0.00016999999999999999,7e-05,5e-05,4
14220,14724,4e-05,7e-05,8e-05,0.00032,2e-05,0.00016999999999999999,7e-05,5e-05,4
14221,14725,4e-05,7e-05,8e-05,0.00032,2e-05,0.00016999999999999999,7e-05,5e-05,4
14222,14726,4e-05,7e-05,8e-05,0.00032,2e-05,0.00016999999999999999,7e-05,5e-05,4
14223,14727,4e-05,7e-05,8e-05,0.00032,2e-05,0.00016999999999999999,7e-05,5e-05,4
14224,14728,4e-05,7e-05,8e-05,0.00032,2e-05,0.00016999999999999999,7e-05,5e-05,4
14225,14729,4e-05,7e-05,8e-05,0.00032,2e-05,0.00016999999999999999,7e-05,5e-05,4
14226,14730,4e-05,7e-05,8e-05,0.00032,2e-05,0.00016999999999999999,7e-05,5e-05,4
14227,14731,-2e-05,0.0,1e-05,0.00022999999999999998,0.0001,-5.9999999999999995e-05,-5e-05,-2.9999999999999997e-05,4
14228,14732,0.00014,0.00022,0.00033,0.00037,0.00029,0.00041,0.00022,0.00015,4
14229,14733,0.00014,0.00022,0.00033,0.00037,0.00029,0.00041,0.00022,0.00015,4
14230,14734,0.00014,0.00022,0.00033,0.00037,0.00029,0.00041,0.00022,0.00015,4
14231,14735,0.00014,0.00022,0.00033,0.00037,0.00029,0.00041,0.00022,0.00015,4
14232,14736,0.00014,0.00022,0.00033,0.00037,0.00029,0.00041,0.00022,0.00015,4
14233,14739,0.00014,0.00022,0.00033,0.00037,0.00029,0.00041,0.00022,0.00015,4
14234,14740,0.00014,0.00022,0.00033,0.00037,0.00029,0.00041,0.00022,0.00015,4
14235,14741,0.00014,0.00022,0.00033,0.00037,0.00029,0.00041,0.00022,0.00015,4
14236,14742,0.00014,0.00022,0.00033,0.00037,0.00029,0.00041,0.00022,0.00015,4
14237,14743,0.00014,0.00022,0.00033,0.00037,0.00029,0.00041,0.00022,0.00015,4
14238,14744,0.00014,0.00022,0.00033,0.00037,0.00029,0.00041,0.00022,0.00015,4
14239,14745,0.00014,0.00022,0.00033,0.00037,0.00029,0.00041,0.00022,0.00015,4
14240,14746,4e-05,7e-05,0.00015,0.00032,-0.00049,4e-05,5e-05,2e-05,4
14241,14747,-0.00013000000000000002,-0.00013000000000000002,-0.00016999999999999999,-0.00057,-0.00107,-0.00049,-0.00022999999999999998,-0.00014,4
14242,14748,-0.00013000000000000002,-0.00013000000000000002,-0.00016999999999999999,-0.00057,-0.00107,-0.00049,-0.00022999999999999998,-0.00014,4
14243,14749,-0.00013000000000000002,-0.00013000000000000002,-0.00016999999999999999,-0.00057,-0.00107,-0.00049,-0.00022999999999999998,-0.00014,4
14244,14750,-0.00013000000000000002,-0.00013000000000000002,-0.00016999999999999999,-0.00057,-0.00107,-0.00049,-0.00022999999999999998,-0.00014,4
14245,14751,-0.00013000000000000002,-0.00013000000000000002,-0.00016999999999999999,-0.00057,-0.00107,-0.00049,-0.00022999999999999998,-0.00014,4
14246,14752,-0.00013000000000000002,-0.00013000000000000002,-0.00016999999999999999,-0.00057,-0.00107,-0.00049,-0.00022999999999999998,-0.00014,4
14247,14753,-0.00013000000000000002,-0.00013000000000000002,-0.00016999999999999999,-0.00057,-0.00107,-0.00049,-0.00022999999999999998,-0.00014,4
14248,14754,-0.00013000000000000002,-0.00013000000000000002,-0.00016999999999999999,-0.00057,-0.00107,-0.00049,-0.00022999999999999998,-0.00014,4
14249,14755,-0.00013000000000000002,-0.00013000000000000002,-0.00016999999999999999,-0.00057,-0.00107,-0.00049,-0.00022999999999999998,-0.00014,4
14250,14756,-0.00013000000000000002,-0.00013000000000000002,-0.00016999999999999999,-0.00057,-0.00107,-0.00049,-0.00022999999999999998,-0.00014,4
14251,14757,-0.00013000000000000002,-0.00013000000000000002,-0.00016999999999999999,-0.00057,-0.00107,-0.00049,-0.00022999999999999998,-0.00014,4
14252,14758,-0.00013000000000000002,-0.00013000000000000002,-0.00016999999999999999,-0.00057,-0.00107,-0.00049,-0.00022999999999999998,-0.00014,4
14253,14759,-0.00013000000000000002,-0.00013000000000000002,-0.00016999999999999999,-0.00057,-0.00107,-0.00049,-0.00022999999999999998,-0.00014,4
14254,14760,-0.00013000000000000002,-0.00013000000000000002,-0.00016999999999999999,-0.00057,-0.00107,-0.00049,-0.00022999999999999998,-0.00014,4
14255,14761,-2.9999999999999997e-05,-4e-05,-1e-05,8e-05,-0.0005099999999999999,-0.00026000000000000003,-0.0001,-2.9999999999999997e-05,4
14256,14762,0.0,-2e-05,-4e-05,-0.00026000000000000003,-0.00036,-0.00011999999999999999,-4e-05,-2.9999999999999997e-05,4
14257,14763,0.0,-2e-05,-4e-05,-0.00026000000000000003,-0.00036,-0.00011999999999999999,-4e-05,-2.9999999999999997e-05,4
14258,14764,0.0,-2e-05,-4e-05,-0.00026000000000000003,-0.00036,-0.00011999999999999999,-4e-05,-2.9999999999999997e-05,4
14259,14765,0.0,-2e-05,-4e-05,-0.00026000000000000003,-0.00036,-0.00011999999999999999,-4e-05,-2.9999999999999997e-05,4
14260,14766,0.0,-2e-05,-4e-05,-0.00026000000000000003,-0.00036,-0.00011999999999999999,-4e-05,-2.9999999999999997e-05,4
14261,14767,0.0,-2e-05,-4e-05,-0.00026000000000000003,-0.00036,-0.00011999999999999999,-4e-05,-2.9999999999999997e-05,4
14262,14768,0.0,-2e-05,-4e-05,-0.00026000000000000003,-0.00036,-0.00011999999999999999,-4e-05,-2.9999999999999997e-05,4
14263,14769,0.0,-2e-05,-4e-05,-0.00026000000000000003,-0.00036,-0.00011999999999999999,-4e-05,-2.9999999999999997e-05,4
14264,14770,0.0,-2e-05,-4e-05,-0.00026000000000000003,-0.00036,-0.00011999999999999999,-4e-05,-2.9999999999999997e-05,4
14265,14771,0.0,-2e-05,-4e-05,-0.00026000000000000003,-0.00036,-0.00011999999999999999,-4e-05,-2.9999999999999997e-05,4
14266,14772,0.0,-2e-05,-4e-05,-0.00026000000000000003,-0.00036,-0.00011999999999999999,-4e-05,-2.9999999999999997e-05,4
14267,14773,0.0,-2e-05,-4e-05,-0.00026000000000000003,-0.00036,-0.00011999999999999999,-4e-05,-2.9999999999999997e-05,4
14268,14774,0.0,-2e-05,-4e-05,-0.00026000000000000003,-0.00036,-0.00011999999999999999,-4e-05,-2.9999999999999997e-05,4
14269,14775,-4e-05,-5.9999999999999995e-05,-0.00015,-0.00033999999999999997,0.00045999999999999996,-0.00022,-8e-05,-2.9999999999999997e-05,4
14270,14776,-5e-05,-7e-05,-0.0002,-0.00029,-2e-05,-0.00016,-2e-05,-4e-05,4
14271,14777,-5e-05,-7e-05,-0.0002,-0.00029,-2e-05,-0.00016,-2e-05,-4e-05,4
14272,14778,-5e-05,-7e-05,-0.0002,-0.00029,-2e-05,-0.00016,-2e-05,-4e-05,4
14273,14779,-5e-05,-7e-05,-0.0002,-0.00029,-2e-05,-0.00016,-2e-05,-4e-05,4
14274,14780,-5e-05,-7e-05,-0.0002,-0.00029,-2e-05,-0.00016,-2e-05,-4e-05,4
14275,14781,-5e-05,-7e-05,-0.0002,-0.00029,-2e-05,-0.00016,-2e-05,-4e-05,4
14276,14782,-5e-05,-7e-05,-0.0002,-0.00029,-2e-05,-0.00016,-2e-05,-4e-05,4
14277,14783,-5e-05,-7e-05,-0.0002,-0.00029,-2e-05,-0.00016,-2e-05,-4e-05,4
14278,14784,-5e-05,-7e-05,-0.0002,-0.00029,-2e-05,-0.00016,-2e-05,-4e-05,4
14279,14785,-5e-05,-7e-05,-0.0002,-0.00029,-2e-05,-0.00016,-2e-05,-4e-05,4
14280,14786,-5e-05,-7e-05,-0.0002,-0.00029,-2e-05,-0.00016,-2e-05,-4e-05,4
14281,14788,-5e-05,-7e-05,-0.0002,-0.00029,-2e-05,-0.00016,-2e-05,-4e-05,4
14282,14790,-5e-05,-7e-05,-0.0002,-0.00029,-2e-05,-0.00016,-2e-05,-4e-05,4
14283,14791,-5e-05,-7e-05,-0.0002,-0.00029,-2e-05,-0.00016,-2e-05,-4e-05,4
14284,14792,-5e-05,-7e-05,-0.0002,-0.00029,-2e-05,-0.00016,-2e-05,-4e-05,4
14285,14793,-5e-05,-7e-05,-0.0002,-0.00029,-2e-05,-0.00016,-2e-05,-4e-05,4
14286,14794,-5e-05,-7e-05,-0.0002,-0.00029,-2e-05,-0.00016,-2e-05,-4e-05,4
14287,14795,-5e-05,-7e-05,-0.0002,-0.00029,-2e-05,-0.00016,-2e-05,-4e-05,4
14288,14796,-5e-05,-7e-05,-0.0002,-0.00029,-2e-05,-0.00016,-2e-05,-4e-05,4
14289,14797,-5e-05,-7e-05,-0.0002,-0.00029,-2e-05,-0.00016,-2e-05,-4e-05,4
14290,14798,-5e-05,-7e-05,-0.0002,-0.00029,-2e-05,-0.00016,-2e-05,-4e-05,4
14291,14799,-4e-05,-5.9999999999999995e-05,-0.00015,-0.00027,5e-05,7e-05,-4e-05,-4e-05,4
14292,14800,-4e-05,-5.9999999999999995e-05,-0.00015,-0.00027,5e-05,7e-05,-4e-05,-4e-05,4
14293,14801,-4e-05,-5.9999999999999995e-05,-0.00015,-0.00027,5e-05,7e-05,-4e-05,-4e-05,4
14294,14802,-4e-05,-5.9999999999999995e-05,-0.00015,-0.00027,5e-05,7e-05,-4e-05,-4e-05,4
14295,14803,-4e-05,-5.9999999999999995e-05,-0.00015,-0.00027,5e-05,7e-05,-4e-05,-4e-05,4
14296,14808,-4e-05,-5.9999999999999995e-05,-0.00015,-0.00027,5e-05,7e-05,-4e-05,-4e-05,4
14297,14809,-4e-05,-5.9999999999999995e-05,-0.00015,-0.00027,5e-05,7e-05,-4e-05,-4e-05,4
14298,14810,-4e-05,-5.9999999999999995e-05,-0.00015,-0.00027,5e-05,7e-05,-4e-05,-4e-05,4
14299,14811,-4e-05,-5.9999999999999995e-05,-0.00015,-0.00027,5e-05,7e-05,-4e-05,-4e-05,4
14300,14812,-4e-05,-5.9999999999999995e-05,-0.00015,-0.00027,5e-05,7e-05,-4e-05,-4e-05,4
14301,14813,-5e-05,-0.00011,-0.00016999999999999999,-0.00045999999999999996,-0.0005099999999999999,-0.0001,-2.9999999999999997e-05,-5.9999999999999995e-05,4
14302,14814,0.00016,0.00022,0.00033999999999999997,0.00075,0.00065,0.0006900000000000001,0.00032,0.00018999999999999998,4
14303,14815,0.00016,0.00022,0.00033999999999999997,0.00075,0.00065,0.0006900000000000001,0.00032,0.00018999999999999998,4
14304,14816,0.00016,0.00022,0.00033999999999999997,0.00075,0.00065,0.0006900000000000001,0.00032,0.00018999999999999998,4
14305,14817,0.00016,0.00022,0.00033999999999999997,0.00075,0.00065,0.0006900000000000001,0.00032,0.00018999999999999998,4
14306,14818,0.00016,0.00022,0.00033999999999999997,0.00075,0.00065,0.0006900000000000001,0.00032,0.00018999999999999998,4
14307,14820,0.00016,0.00022,0.00033999999999999997,0.00075,0.00065,0.0006900000000000001,0.00032,0.00018999999999999998,4
14308,14821,0.00016,0.00022,0.00033999999999999997,0.00075,0.00065,0.0006900000000000001,0.00032,0.00018999999999999998,4
14309,14822,0.00016,0.00022,0.00033999999999999997,0.00075,0.00065,0.0006900000000000001,0.00032,0.00018999999999999998,4
14310,14823,0.00016,0.00022,0.00033999999999999997,0.00075,0.00065,0.0006900000000000001,0.00032,0.00018999999999999998,4
14311,14824,0.00016,0.00022,0.00033999999999999997,0.00075,0.00065,0.0006900000000000001,0.00032,0.00018999999999999998,4
14312,14825,0.00016,0.00022,0.00033999999999999997,0.00075,0.00065,0.0006900000000000001,0.00032,0.00018999999999999998,4
14313,14826,0.00016,0.00022,0.00033999999999999997,0.00075,0.00065,0.0006900000000000001,0.00032,0.00018999999999999998,4
14314,14827,0.00016,0.00022,0.00033999999999999997,0.00075,0.00065,0.0006900000000000001,0.00032,0.00018999999999999998,4
14315,14828,0.00016,0.00022,0.00033999999999999997,0.00075,0.00065,0.0006900000000000001,0.00032,0.00018999999999999998,4
14316,14829,0.00016,0.00022,0.00033999999999999997,0.00075,0.00065,0.0006900000000000001,0.00032,0.00018999999999999998,4
14317,14830,0.00016,0.00022,0.00033999999999999997,0.00075,0.00065,0.0006900000000000001,0.00032,0.00018999999999999998,4
14318,14831,0.00016,0.00022,0.00033999999999999997,0.00075,0.00065,0.0006900000000000001,0.00032,0.00018999999999999998,4
14319,14832,0.00016,0.00022,0.00033999999999999997,0.00075,0.00065,0.0006900000000000001,0.00032,0.00018999999999999998,4
14320,14833,0.00016,0.00022,0.00033999999999999997,0.00075,0.00065,0.0006900000000000001,0.00032,0.00018999999999999998,4
14321,14834,0.00016,0.00022,0.00033999999999999997,0.00075,0.00065,0.0006900000000000001,0.00032,0.00018999999999999998,4
14322,14835,0.0,-1e-05,0.00014,0.00054,-0.00045,-5.9999999999999995e-05,-7e-05,-2.9999999999999997e-05,4
14323,14836,-5.9999999999999995e-05,-0.0001,-0.00016,-0.00036,-0.00021,-0.0001,-9e-05,-7e-05,4
14324,14838,-5.9999999999999995e-05,-0.0001,-0.00016,-0.00036,-0.00021,-0.0001,-9e-05,-7e-05,4
14325,14839,-5.9999999999999995e-05,-0.0001,-0.00016,-0.00036,-0.00021,-0.0001,-9e-05,-7e-05,4
14326,14840,-5.9999999999999995e-05,-0.0001,-0.00016,-0.00036,-0.00021,-0.0001,-9e-05,-7e-05,4
14327,14841,-5.9999999999999995e-05,-0.0001,-0.00016,-0.00036,-0.00021,-0.0001,-9e-05,-7e-05,4
14328,14842,-5.9999999999999995e-05,-0.0001,-0.00016,-0.00036,-0.00021,-0.0001,-9e-05,-7e-05,4
14329,14843,-5.9999999999999995e-05,-0.0001,-0.00016,-0.00036,-0.00021,-0.0001,-9e-05,-7e-05,4
14330,14844,-5.9999999999999995e-05,-0.0001,-0.00016,-0.00036,-0.00021,-0.0001,-9e-05,-7e-05,4
14331,14845,-5.9999999999999995e-05,-0.0001,-0.00016,-0.00036,-0.00021,-0.0001,-9e-05,-7e-05,4
14332,14846,-5.9999999999999995e-05,-0.0001,-0.00016,-0.00036,-0.00021,-0.0001,-9e-05,-7e-05,4
14333,14847,-5.9999999999999995e-05,-0.0001,-0.00016,-0.00036,-0.00021,-0.0001,-9e-05,-7e-05,4
14334,14848,-5.9999999999999995e-05,-0.0001,-0.00016,-0.00036,-0.00021,-0.0001,-9e-05,-7e-05,4
14335,14849,-5.9999999999999995e-05,-0.0001,-0.00016,-0.00036,-0.00021,-0.0001,-9e-05,-7e-05,4
14336,14850,-5.9999999999999995e-05,-0.0001,-0.00016,-0.00036,-0.00021,-0.0001,-9e-05,-7e-05,4
14337,14851,-5.9999999999999995e-05,-0.0001,-0.00016,-0.00036,-0.00021,-0.0001,-9e-05,-7e-05,4
14338,14852,-5.9999999999999995e-05,-0.0001,-0.00016,-0.00036,-0.00021,-0.0001,-9e-05,-7e-05,4
14339,14853,-5.9999999999999995e-05,-0.0001,-0.00016,-0.00036,-0.00021,-0.0001,-9e-05,-7e-05,4
14340,14854,-5.9999999999999995e-05,-0.0001,-0.00016,-0.00036,-0.00021,-0.0001,-9e-05,-7e-05,4
14341,14855,-5.9999999999999995e-05,-0.0001,-0.00016,-0.00036,-0.00021,-0.0001,-9e-05,-7e-05,4
14342,14856,-5.9999999999999995e-05,-0.0001,-0.00016,-0.00036,-0.00021,-0.0001,-9e-05,-7e-05,4
14343,14857,-5.9999999999999995e-05,-0.0001,-0.00016,-0.00036,-0.00021,-0.0001,-9e-05,-7e-05,4
14344,14858,-5.9999999999999995e-05,-0.0001,-0.00016,-0.00036,-0.00021,-0.0001,-9e-05,-7e-05,4
14345,14859,5.9999999999999995e-05,0.00011,0.00011999999999999999,0.00026000000000000003,-0.00031,0.00011,0.0001,5.9999999999999995e-05,4
14346,14860,0.0,1e-05,8e-05,0.00013000000000000002,0.00072,0.00015,5.9999999999999995e-05,4e-05,4
14347,14861,0.0,1e-05,8e-05,0.00013000000000000002,0.00072,0.00015,5.9999999999999995e-05,4e-05,4
14348,14862,0.0,1e-05,8e-05,0.00013000000000000002,0.00072,0.00015,5.9999999999999995e-05,4e-05,4
14349,14863,0.0,1e-05,8e-05,0.00013000000000000002,0.00072,0.00015,5.9999999999999995e-05,4e-05,4
14350,14864,0.0,1e-05,8e-05,0.00013000000000000002,0.00072,0.00015,5.9999999999999995e-05,4e-05,4
14351,14865,0.0,1e-05,8e-05,0.00013000000000000002,0.00072,0.00015,5.9999999999999995e-05,4e-05,4
14352,14866,0.0,1e-05,8e-05,0.00013000000000000002,0.00072,0.00015,5.9999999999999995e-05,4e-05,4
14353,14867,0.0,1e-05,8e-05,0.00013000000000000002,0.00072,0.00015,5.9999999999999995e-05,4e-05,4
14354,14868,0.0,1e-05,8e-05,0.00013000000000000002,0.00072,0.00015,5.9999999999999995e-05,4e-05,4
14355,14869,0.0,1e-05,8e-05,0.00013000000000000002,0.00072,0.00015,5.9999999999999995e-05,4e-05,4
14356,14870,0.0,1e-05,8e-05,0.00013000000000000002,0.00072,0.00015,5.9999999999999995e-05,4e-05,4
14357,14871,0.0,1e-05,8e-05,0.00013000000000000002,0.00072,0.00015,5.9999999999999995e-05,4e-05,4
14358,14872,0.0,1e-05,8e-05,0.00013000000000000002,0.00072,0.00015,5.9999999999999995e-05,4e-05,4
14359,14873,-0.0001,-0.00015,-0.00027,-0.0009,-0.00101,-0.00044,-0.0002,-0.00011999999999999999,4
14360,14874,-7e-05,-8e-05,-0.00011999999999999999,4e-05,-0.00049,-0.00033999999999999997,-0.00016,-0.00011,4
14361,14875,-7e-05,-8e-05,-0.00011999999999999999,4e-05,-0.00049,-0.00033999999999999997,-0.00016,-0.00011,4
14362,14876,-7e-05,-8e-05,-0.00011999999999999999,4e-05,-0.00049,-0.00033999999999999997,-0.00016,-0.00011,4
14363,14877,-7e-05,-8e-05,-0.00011999999999999999,4e-05,-0.00049,-0.00033999999999999997,-0.00016,-0.00011,4
14364,14878,-7e-05,-8e-05,-0.00011999999999999999,4e-05,-0.00049,-0.00033999999999999997,-0.00016,-0.00011,4
14365,14879,-7e-05,-8e-05,-0.00011999999999999999,4e-05,-0.00049,-0.00033999999999999997,-0.00016,-0.00011,4
14366,14880,-7e-05,-8e-05,-0.00011999999999999999,4e-05,-0.00049,-0.00033999999999999997,-0.00016,-0.00011,4
14367,14881,-7e-05,-8e-05,-0.00011999999999999999,4e-05,-0.00049,-0.00033999999999999997,-0.00016,-0.00011,4
14368,14882,-7e-05,-8e-05,-0.00011999999999999999,4e-05,-0.00049,-0.00033999999999999997,-0.00016,-0.00011,4
14369,14883,-7e-05,-8e-05,-0.00011999999999999999,4e-05,-0.00049,-0.00033999999999999997,-0.00016,-0.00011,4
14370,14884,-7e-05,-8e-05,-0.00011999999999999999,4e-05,-0.00049,-0.00033999999999999997,-0.00016,-0.00011,4
14371,14885,-7e-05,-8e-05,-0.00011999999999999999,4e-05,-0.00049,-0.00033999999999999997,-0.00016,-0.00011,4
14372,14886,-7e-05,-8e-05,-0.00011999999999999999,4e-05,-0.00049,-0.00033999999999999997,-0.00016,-0.00011,4
14373,14888,-7e-05,-8e-05,-0.00011999999999999999,4e-05,-0.00049,-0.00033999999999999997,-0.00016,-0.00011,4
14374,14889,-7e-05,-8e-05,-0.00011999999999999999,4e-05,-0.00049,-0.00033999999999999997,-0.00016,-0.00011,4
14375,14890,-7e-05,-8e-05,-0.00011999999999999999,4e-05,-0.00049,-0.00033999999999999997,-0.00016,-0.00011,4
14376,14891,-7e-05,-8e-05,-0.00011999999999999999,4e-05,-0.00049,-0.00033999999999999997,-0.00016,-0.00011,4
14377,14892,-7e-05,-8e-05,-0.00011999999999999999,4e-05,-0.00049,-0.00033999999999999997,-0.00016,-0.00011,4
14378,14893,-7e-05,-8e-05,-0.00011999999999999999,4e-05,-0.00049,-0.00033999999999999997,-0.00016,-0.00011,4
14379,14894,-7e-05,-8e-05,-0.00011999999999999999,4e-05,-0.00049,-0.00033999999999999997,-0.00016,-0.00011,4
14380,14895,-5e-05,-9e-05,-0.00025,-0.00044,0.00014,-9e-05,-1e-05,-1e-05,4
14381,14896,1e-05,4e-05,1e-05,0.0,0.00045999999999999996,7e-05,2e-05,1e-05,4
14382,14897,1e-05,4e-05,1e-05,0.0,0.00045999999999999996,7e-05,2e-05,1e-05,4
14383,14898,1e-05,4e-05,1e-05,0.0,0.00045999999999999996,7e-05,2e-05,1e-05,4
14384,14899,1e-05,4e-05,1e-05,0.0,0.00045999999999999996,7e-05,2e-05,1e-05,4
14385,14900,1e-05,4e-05,1e-05,0.0,0.00045999999999999996,7e-05,2e-05,1e-05,4
14386,14901,1e-05,4e-05,1e-05,0.0,0.00045999999999999996,7e-05,2e-05,1e-05,4
14387,14902,1e-05,4e-05,1e-05,0.0,0.00045999999999999996,7e-05,2e-05,1e-05,4
14388,14903,1e-05,4e-05,1e-05,0.0,0.00045999999999999996,7e-05,2e-05,1e-05,4
14389,14904,1e-05,4e-05,1e-05,0.0,0.00045999999999999996,7e-05,2e-05,1e-05,4
14390,14905,1e-05,4e-05,1e-05,0.0,0.00045999999999999996,7e-05,2e-05,1e-05,4
14391,14906,1e-05,4e-05,1e-05,0.0,0.00045999999999999996,7e-05,2e-05,1e-05,4
14392,14907,1e-05,4e-05,1e-05,0.0,0.00045999999999999996,7e-05,2e-05,1e-05,4
14393,14908,1e-05,4e-05,1e-05,0.0,0.00045999999999999996,7e-05,2e-05,1e-05,4
14394,14909,1e-05,4e-05,1e-05,0.0,0.00045999999999999996,7e-05,2e-05,1e-05,4
14395,14910,1e-05,4e-05,1e-05,0.0,0.00045999999999999996,7e-05,2e-05,1e-05,4
14396,14911,1e-05,4e-05,1e-05,0.0,0.00045999999999999996,7e-05,2e-05,1e-05,4
14397,14912,1e-05,4e-05,1e-05,0.0,0.00045999999999999996,7e-05,2e-05,1e-05,4
14398,14913,1e-05,4e-05,1e-05,0.0,0.00045999999999999996,7e-05,2e-05,1e-05,4
14399,14914,1e-05,4e-05,1e-05,0.0,0.00045999999999999996,7e-05,2e-05,1e-05,4
14400,14915,1e-05,4e-05,1e-05,0.0,0.00045999999999999996,7e-05,2e-05,1e-05,4
14401,14916,1e-05,4e-05,1e-05,0.0,0.00045999999999999996,7e-05,2e-05,1e-05,4
14402,14917,1e-05,4e-05,1e-05,0.0,0.00045999999999999996,7e-05,2e-05,1e-05,4
14403,14918,2e-05,2.9999999999999997e-05,8e-05,0.00042,0.00027,9e-05,0.0,-1e-05,4
14404,14919,2e-05,2.9999999999999997e-05,8e-05,0.00042,0.00027,9e-05,0.0,-1e-05,4
14405,14920,2e-05,2.9999999999999997e-05,8e-05,0.00042,0.00027,9e-05,0.0,-1e-05,4
14406,14921,2e-05,2.9999999999999997e-05,8e-05,0.00042,0.00027,9e-05,0.0,-1e-05,4
14407,14922,2e-05,2.9999999999999997e-05,8e-05,0.00042,0.00027,9e-05,0.0,-1e-05,4
14408,14923,2e-05,2.9999999999999997e-05,8e-05,0.00042,0.00027,9e-05,0.0,-1e-05,4
14409,14924,2e-05,2.9999999999999997e-05,8e-05,0.00042,0.00027,9e-05,0.0,-1e-05,4
14410,14925,2e-05,2.9999999999999997e-05,8e-05,0.00042,0.00027,9e-05,0.0,-1e-05,4
14411,14926,2e-05,2.9999999999999997e-05,8e-05,0.00042,0.00027,9e-05,0.0,-1e-05,4
14412,14927,2e-05,2.9999999999999997e-05,8e-05,0.00042,0.00027,9e-05,0.0,-1e-05,4
14413,14928,2e-05,2.9999999999999997e-05,8e-05,0.00042,0.00027,9e-05,0.0,-1e-05,4
14414,14929,2e-05,2.9999999999999997e-05,8e-05,0.00042,0.00027,9e-05,0.0,-1e-05,4
14415,14930,2e-05,2.9999999999999997e-05,8e-05,0.00042,0.00027,9e-05,0.0,-1e-05,4
14416,14931,2e-05,2.9999999999999997e-05,8e-05,0.00042,0.00027,9e-05,0.0,-1e-05,4
14417,14932,2e-05,2.9999999999999997e-05,8e-05,0.00042,0.00027,9e-05,0.0,-1e-05,4
14418,14933,2e-05,2.9999999999999997e-05,8e-05,0.00042,0.00027,9e-05,0.0,-1e-05,4
14419,14934,-0.00013000000000000002,-0.00016999999999999999,-0.00027,-0.00061,-0.0011,-0.00075,-0.0003,-0.00015,4
14420,14935,-0.00013000000000000002,-0.00016999999999999999,-0.00027,-0.00061,-0.0011,-0.00075,-0.0003,-0.00015,4
14421,14936,-5e-05,-2e-05,0.00014,0.00037999999999999997,-0.00044,-0.00022,-5.9999999999999995e-05,-2.9999999999999997e-05,4
14422,14938,-2e-05,-5.9999999999999995e-05,-8e-05,-0.00016999999999999999,-0.00055,-0.00015,-5e-05,-5e-05,4
14423,14939,-2e-05,-5.9999999999999995e-05,-8e-05,-0.00016999999999999999,-0.00055,-0.00015,-5e-05,-5e-05,4
14424,14940,-2e-05,-5.9999999999999995e-05,-8e-05,-0.00016999999999999999,-0.00055,-0.00015,-5e-05,-5e-05,4
14425,14941,-2e-05,-5.9999999999999995e-05,-8e-05,-0.00016999999999999999,-0.00055,-0.00015,-5e-05,-5e-05,4
14426,14942,-2e-05,-5.9999999999999995e-05,-8e-05,-0.00016999999999999999,-0.00055,-0.00015,-5e-05,-5e-05,4
14427,14943,-2e-05,-5.9999999999999995e-05,-8e-05,-0.00016999999999999999,-0.00055,-0.00015,-5e-05,-5e-05,4
14428,14944,-2e-05,-5.9999999999999995e-05,-8e-05,-0.00016999999999999999,-0.00055,-0.00015,-5e-05,-5e-05,4
14429,14945,-2e-05,-5.9999999999999995e-05,-8e-05,-0.00016999999999999999,-0.00055,-0.00015,-5e-05,-5e-05,4
14430,14946,-2e-05,-5.9999999999999995e-05,-8e-05,-0.00016999999999999999,-0.00055,-0.00015,-5e-05,-5e-05,4
14431,14947,-2e-05,-5.9999999999999995e-05,-8e-05,-0.00016999999999999999,-0.00055,-0.00015,-5e-05,-5e-05,4
14432,14948,-2e-05,-5.9999999999999995e-05,-8e-05,-0.00016999999999999999,-0.00055,-0.00015,-5e-05,-5e-05,4
14433,14949,-2e-05,-5.9999999999999995e-05,-8e-05,-0.00016999999999999999,-0.00055,-0.00015,-5e-05,-5e-05,4
14434,14950,-2e-05,-5.9999999999999995e-05,-8e-05,-0.00016999999999999999,-0.00055,-0.00015,-5e-05,-5e-05,4
14435,14951,-2e-05,-5.9999999999999995e-05,-8e-05,-0.00016999999999999999,-0.00055,-0.00015,-5e-05,-5e-05,4
14436,14952,-2e-05,-5.9999999999999995e-05,-8e-05,-0.00016999999999999999,-0.00055,-0.00015,-5e-05,-5e-05,4
14437,14953,-2e-05,-5.9999999999999995e-05,-8e-05,-0.00016999999999999999,-0.00055,-0.00015,-5e-05,-5e-05,4
14438,14954,-2e-05,-5.9999999999999995e-05,-8e-05,-0.00016999999999999999,-0.00055,-0.00015,-5e-05,-5e-05,4
14439,14955,-2e-05,-5.9999999999999995e-05,-8e-05,-0.00016999999999999999,-0.00055,-0.00015,-5e-05,-5e-05,4
14440,14956,1e-05,2e-05,5e-05,0.0001,0.0006799999999999999,0.00011999999999999999,2e-05,1e-05,4
14441,14957,1e-05,2e-05,5e-05,0.0001,0.0006799999999999999,0.00011999999999999999,2e-05,1e-05,4
14442,14958,1e-05,2e-05,5e-05,0.0001,0.0006799999999999999,0.00011999999999999999,2e-05,1e-05,4
14443,14959,1e-05,2e-05,5e-05,0.0001,0.0006799999999999999,0.00011999999999999999,2e-05,1e-05,4
14444,14960,1e-05,2e-05,5e-05,0.0001,0.0006799999999999999,0.00011999999999999999,2e-05,1e-05,4
14445,14961,1e-05,2e-05,5e-05,0.0001,0.0006799999999999999,0.00011999999999999999,2e-05,1e-05,4
14446,14962,1e-05,2e-05,5e-05,0.0001,0.0006799999999999999,0.00011999999999999999,2e-05,1e-05,4
14447,14963,8e-05,0.00013000000000000002,0.00018999999999999998,0.00058,0.0012699999999999999,0.00043,0.00021,0.00011999999999999999,4
14448,14964,8e-05,0.00013000000000000002,0.00018999999999999998,0.00058,0.0012699999999999999,0.00043,0.00021,0.00011999999999999999,4
14449,14965,8e-05,0.00013000000000000002,0.00018999999999999998,0.00058,0.0012699999999999999,0.00043,0.00021,0.00011999999999999999,4
14450,14966,8e-05,0.00013000000000000002,0.00018999999999999998,0.00058,0.0012699999999999999,0.00043,0.00021,0.00011999999999999999,4
14451,14967,8e-05,0.00013000000000000002,0.00018999999999999998,0.00058,0.0012699999999999999,0.00043,0.00021,0.00011999999999999999,4
14452,14968,8e-05,0.00013000000000000002,0.00018999999999999998,0.00058,0.0012699999999999999,0.00043,0.00021,0.00011999999999999999,4
14453,14969,8e-05,0.00013000000000000002,0.00018999999999999998,0.00058,0.0012699999999999999,0.00043,0.00021,0.00011999999999999999,4
14454,14970,8e-05,0.00013000000000000002,0.00018999999999999998,0.00058,0.0012699999999999999,0.00043,0.00021,0.00011999999999999999,4
14455,14971,8e-05,0.00013000000000000002,0.00018999999999999998,0.00058,0.0012699999999999999,0.00043,0.00021,0.00011999999999999999,4
14456,14972,8e-05,0.00013000000000000002,0.00018999999999999998,0.00058,0.0012699999999999999,0.00043,0.00021,0.00011999999999999999,4
14457,14973,8e-05,0.00013000000000000002,0.00018999999999999998,0.00058,0.0012699999999999999,0.00043,0.00021,0.00011999999999999999,4
14458,14974,8e-05,0.00013000000000000002,0.00018999999999999998,0.00058,0.0012699999999999999,0.00043,0.00021,0.00011999999999999999,4
14459,14975,8e-05,0.00013000000000000002,0.00018999999999999998,0.00058,0.0012699999999999999,0.00043,0.00021,0.00011999999999999999,4
14460,14976,8e-05,0.00013000000000000002,0.00018999999999999998,0.00058,0.0012699999999999999,0.00043,0.00021,0.00011999999999999999,4
14461,14977,8e-05,0.00013000000000000002,0.00018999999999999998,0.00058,0.0012699999999999999,0.00043,0.00021,0.00011999999999999999,4
14462,14978,8e-05,0.00013000000000000002,0.00018999999999999998,0.00058,0.0012699999999999999,0.00043,0.00021,0.00011999999999999999,4
14463,14979,-1e-05,0.0,-0.00013000000000000002,-0.00063,-0.00099,-0.00032,-5.9999999999999995e-05,0.0,4
14464,14980,2.9999999999999997e-05,5e-05,0.00026000000000000003,0.00055,0.001,0.00041,0.0001,4e-05,4
14465,14981,0.00016999999999999999,0.00018,0.00011,-0.00044,-0.0009699999999999999,0.00016,0.0002,0.00016,4
14466,14982,0.00016999999999999999,0.00018,0.00011,-0.00044,-0.0009699999999999999,0.00016,0.0002,0.00016,4
14467,14983,0.00016999999999999999,0.00018,0.00011,-0.00044,-0.0009699999999999999,0.00016,0.0002,0.00016,4
14468,14984,0.00016999999999999999,0.00018,0.00011,-0.00044,-0.0009699999999999999,0.00016,0.0002,0.00016,4
14469,14985,0.00016999999999999999,0.00018,0.00011,-0.00044,-0.0009699999999999999,0.00016,0.0002,0.00016,4
14470,14986,0.00016999999999999999,0.00018,0.00011,-0.00044,-0.0009699999999999999,0.00016,0.0002,0.00016,4
14471,14989,0.00016999999999999999,0.00018,0.00011,-0.00044,-0.0009699999999999999,0.00016,0.0002,0.00016,4
14472,14990,0.00016999999999999999,0.00018,0.00011,-0.00044,-0.0009699999999999999,0.00016,0.0002,0.00016,4
14473,14991,0.00016999999999999999,0.00018,0.00011,-0.00044,-0.0009699999999999999,0.00016,0.0002,0.00016,4
14474,14992,0.00016999999999999999,0.00018,0.00011,-0.00044,-0.0009699999999999999,0.00016,0.0002,0.00016,4
14475,14993,0.00016999999999999999,0.00018,0.00011,-0.00044,-0.0009699999999999999,0.00016,0.0002,0.00016,4
14476,14994,0.00016999999999999999,0.00018,0.00011,-0.00044,-0.0009699999999999999,0.00016,0.0002,0.00016,4
14477,14995,0.00016999999999999999,0.00018,0.00011,-0.00044,-0.0009699999999999999,0.00016,0.0002,0.00016,4
14478,14996,0.00016999999999999999,0.00018,0.00011,-0.00044,-0.0009699999999999999,0.00016,0.0002,0.00016,4
14479,14997,0.00016999999999999999,0.00018,0.00011,-0.00044,-0.0009699999999999999,0.00016,0.0002,0.00016,4
14480,14998,0.00016999999999999999,0.00018,0.00011,-0.00044,-0.0009699999999999999,0.00016,0.0002,0.00016,4
14481,14999,0.00016999999999999999,0.00018,0.00011,-0.00044,-0.0009699999999999999,0.00016,0.0002,0.00016,4
14482,15000,0.00016999999999999999,0.00018,0.00011,-0.00044,-0.0009699999999999999,0.00016,0.0002,0.00016,4
14483,15001,-1e-05,-8e-05,-0.0003,-0.00049,-0.00016999999999999999,-5.9999999999999995e-05,-5e-05,0.0,4
14484,15002,-4e-05,-5.9999999999999995e-05,-2.9999999999999997e-05,0.00013000000000000002,-0.00016999999999999999,0.00015,-2e-05,-7e-05,4
14485,15003,-4e-05,-5.9999999999999995e-05,-2.9999999999999997e-05,0.00013000000000000002,-0.00016999999999999999,0.00015,-2e-05,-7e-05,4
14486,15004,-4e-05,-5.9999999999999995e-05,-2.9999999999999997e-05,0.00013000000000000002,-0.00016999999999999999,0.00015,-2e-05,-7e-05,4
14487,15005,-4e-05,-5.9999999999999995e-05,-2.9999999999999997e-05,0.00013000000000000002,-0.00016999999999999999,0.00015,-2e-05,-7e-05,4
14488,15006,-4e-05,-5.9999999999999995e-05,-2.9999999999999997e-05,0.00013000000000000002,-0.00016999999999999999,0.00015,-2e-05,-7e-05,4
14489,15007,-4e-05,-5.9999999999999995e-05,-2.9999999999999997e-05,0.00013000000000000002,-0.00016999999999999999,0.00015,-2e-05,-7e-05,4
14490,15009,-4e-05,-5.9999999999999995e-05,-2.9999999999999997e-05,0.00013000000000000002,-0.00016999999999999999,0.00015,-2e-05,-7e-05,4
14491,15010,-4e-05,-5.9999999999999995e-05,-2.9999999999999997e-05,0.00013000000000000002,-0.00016999999999999999,0.00015,-2e-05,-7e-05,4
14492,15011,-4e-05,-5.9999999999999995e-05,-2.9999999999999997e-05,0.00013000000000000002,-0.00016999999999999999,0.00015,-2e-05,-7e-05,4
14493,15012,-4e-05,-5.9999999999999995e-05,-2.9999999999999997e-05,0.00013000000000000002,-0.00016999999999999999,0.00015,-2e-05,-7e-05,4
14494,15013,-4e-05,-5.9999999999999995e-05,-2.9999999999999997e-05,0.00013000000000000002,-0.00016999999999999999,0.00015,-2e-05,-7e-05,4
14495,15014,-4e-05,-5.9999999999999995e-05,-2.9999999999999997e-05,0.00013000000000000002,-0.00016999999999999999,0.00015,-2e-05,-7e-05,4
14496,15015,-4e-05,-5.9999999999999995e-05,-2.9999999999999997e-05,0.00013000000000000002,-0.00016999999999999999,0.00015,-2e-05,-7e-05,4
14497,15016,2.9999999999999997e-05,2e-05,0.00016999999999999999,0.0004,0.001,0.00026000000000000003,5e-05,1e-05,4
14498,15017,-7e-05,-8e-05,4e-05,0.00047999999999999996,-8e-05,-0.00022999999999999998,-0.00015,-7e-05,4
14499,15018,-7e-05,-8e-05,4e-05,0.00047999999999999996,-8e-05,-0.00022999999999999998,-0.00015,-7e-05,4
14500,15019,-7e-05,-8e-05,4e-05,0.00047999999999999996,-8e-05,-0.00022999999999999998,-0.00015,-7e-05,4
14501,15020,-7e-05,-8e-05,4e-05,0.00047999999999999996,-8e-05,-0.00022999999999999998,-0.00015,-7e-05,4
14502,15021,-7e-05,-8e-05,4e-05,0.00047999999999999996,-8e-05,-0.00022999999999999998,-0.00015,-7e-05,4
14503,15022,-7e-05,-8e-05,4e-05,0.00047999999999999996,-8e-05,-0.00022999999999999998,-0.00015,-7e-05,4
14504,15023,-7e-05,-8e-05,4e-05,0.00047999999999999996,-8e-05,-0.00022999999999999998,-0.00015,-7e-05,4
14505,15024,-7e-05,-8e-05,4e-05,0.00047999999999999996,-8e-05,-0.00022999999999999998,-0.00015,-7e-05,4
14506,15025,-7e-05,-8e-05,4e-05,0.00047999999999999996,-8e-05,-0.00022999999999999998,-0.00015,-7e-05,4
14507,15026,-7e-05,-8e-05,4e-05,0.00047999999999999996,-8e-05,-0.00022999999999999998,-0.00015,-7e-05,4
14508,15027,-7e-05,-8e-05,4e-05,0.00047999999999999996,-8e-05,-0.00022999999999999998,-0.00015,-7e-05,4
14509,15028,-7e-05,-8e-05,4e-05,0.00047999999999999996,-8e-05,-0.00022999999999999998,-0.00015,-7e-05,4
14510,15029,-7e-05,-8e-05,4e-05,0.00047999999999999996,-8e-05,-0.00022999999999999998,-0.00015,-7e-05,4
14511,15030,-7e-05,-8e-05,4e-05,0.00047999999999999996,-8e-05,-0.00022999999999999998,-0.00015,-7e-05,4
14512,15031,-7e-05,-8e-05,4e-05,0.00047999999999999996,-8e-05,-0.00022999999999999998,-0.00015,-7e-05,4
14513,15033,-7e-05,-8e-05,4e-05,0.00047999999999999996,-8e-05,-0.00022999999999999998,-0.00015,-7e-05,4
14514,15034,-7e-05,-8e-05,4e-05,0.00047999999999999996,-8e-05,-0.00022999999999999998,-0.00015,-7e-05,4
14515,15035,-7e-05,-8e-05,4e-05,0.00047999999999999996,-8e-05,-0.00022999999999999998,-0.00015,-7e-05,4
14516,15036,-7e-05,-8e-05,4e-05,0.00047999999999999996,-8e-05,-0.00022999999999999998,-0.00015,-7e-05,4
14517,15039,-7e-05,-8e-05,4e-05,0.00047999999999999996,-8e-05,-0.00022999999999999998,-0.00015,-7e-05,4
14518,15040,2.9999999999999997e-05,4e-05,-7e-05,-0.00032,0.00064,0.0005,0.0002,8e-05,4
14519,15041,-9e-05,-0.0001,-0.00015,-0.00016,-0.00072,-0.0003,-0.00021,-0.00013000000000000002,4
14520,15042,-9e-05,-0.0001,-0.00015,-0.00016,-0.00072,-0.0003,-0.00021,-0.00013000000000000002,4
14521,15043,-9e-05,-0.0001,-0.00015,-0.00016,-0.00072,-0.0003,-0.00021,-0.00013000000000000002,4
14522,15044,-9e-05,-0.0001,-0.00015,-0.00016,-0.00072,-0.0003,-0.00021,-0.00013000000000000002,4
14523,15045,-9e-05,-0.0001,-0.00015,-0.00016,-0.00072,-0.0003,-0.00021,-0.00013000000000000002,4
14524,15046,-9e-05,-0.0001,-0.00015,-0.00016,-0.00072,-0.0003,-0.00021,-0.00013000000000000002,4
14525,15047,-9e-05,-0.0001,-0.00015,-0.00016,-0.00072,-0.0003,-0.00021,-0.00013000000000000002,4
14526,15048,-9e-05,-0.0001,-0.00015,-0.00016,-0.00072,-0.0003,-0.00021,-0.00013000000000000002,4
14527,15049,-9e-05,-0.0001,-0.00015,-0.00016,-0.00072,-0.0003,-0.00021,-0.00013000000000000002,4
14528,15050,-9e-05,-0.0001,-0.00015,-0.00016,-0.00072,-0.0003,-0.00021,-0.00013000000000000002,4
14529,15051,-9e-05,-0.0001,-0.00015,-0.00016,-0.00072,-0.0003,-0.00021,-0.00013000000000000002,4
14530,15052,-9e-05,-0.0001,-0.00015,-0.00016,-0.00072,-0.0003,-0.00021,-0.00013000000000000002,4
14531,15053,-1e-05,-1e-05,-4e-05,-4e-05,4e-05,0.00033,0.00014,4e-05,4
14532,15054,5e-05,7e-05,0.0001,0.00057,0.0007099999999999999,0.00029,0.00011,5.9999999999999995e-05,4
14533,15055,5e-05,7e-05,0.0001,0.00057,0.0007099999999999999,0.00029,0.00011,5.9999999999999995e-05,4
14534,15056,5e-05,7e-05,0.0001,0.00057,0.0007099999999999999,0.00029,0.00011,5.9999999999999995e-05,4
14535,15057,5e-05,7e-05,0.0001,0.00057,0.0007099999999999999,0.00029,0.00011,5.9999999999999995e-05,4
14536,15058,5e-05,7e-05,0.0001,0.00057,0.0007099999999999999,0.00029,0.00011,5.9999999999999995e-05,4
14537,15059,5e-05,7e-05,0.0001,0.00057,0.0007099999999999999,0.00029,0.00011,5.9999999999999995e-05,4
14538,15060,5e-05,7e-05,0.0001,0.00057,0.0007099999999999999,0.00029,0.00011,5.9999999999999995e-05,4
14539,15061,5e-05,7e-05,0.0001,0.00057,0.0007099999999999999,0.00029,0.00011,5.9999999999999995e-05,4
14540,15062,5e-05,7e-05,0.0001,0.00057,0.0007099999999999999,0.00029,0.00011,5.9999999999999995e-05,4
14541,15063,5e-05,7e-05,0.0001,0.00057,0.0007099999999999999,0.00029,0.00011,5.9999999999999995e-05,4
14542,15064,5e-05,7e-05,0.0001,0.00057,0.0007099999999999999,0.00029,0.00011,5.9999999999999995e-05,4
14543,15065,5e-05,7e-05,0.0001,0.00057,0.0007099999999999999,0.00029,0.00011,5.9999999999999995e-05,4
14544,15066,5e-05,7e-05,0.0001,0.00057,0.0007099999999999999,0.00029,0.00011,5.9999999999999995e-05,4
14545,15067,5e-05,7e-05,0.0001,0.00057,0.0007099999999999999,0.00029,0.00011,5.9999999999999995e-05,4
14546,15068,5e-05,7e-05,0.0001,0.00057,0.0007099999999999999,0.00029,0.00011,5.9999999999999995e-05,4
14547,15069,5e-05,7e-05,0.0001,0.00057,0.0007099999999999999,0.00029,0.00011,5.9999999999999995e-05,4
14548,15070,5e-05,7e-05,0.0001,0.00057,0.0007099999999999999,0.00029,0.00011,5.9999999999999995e-05,4
14549,15071,5e-05,7e-05,0.0001,0.00057,0.0007099999999999999,0.00029,0.00011,5.9999999999999995e-05,4
14550,15072,5e-05,7e-05,0.0001,0.00057,0.0007099999999999999,0.00029,0.00011,5.9999999999999995e-05,4
14551,15073,5e-05,7e-05,0.0001,0.00057,0.0007099999999999999,0.00029,0.00011,5.9999999999999995e-05,4
14552,15074,5e-05,7e-05,0.0001,0.00057,0.0007099999999999999,0.00029,0.00011,5.9999999999999995e-05,4
14553,15075,5e-05,7e-05,0.0001,0.00057,0.0007099999999999999,0.00029,0.00011,5.9999999999999995e-05,4
14554,15076,2.9999999999999997e-05,2e-05,-5e-05,-9e-05,0.00062,0.00015,2.9999999999999997e-05,2e-05,4
14555,15077,-0.00011,-0.00015,-0.0001,0.0001,-0.00047000000000000004,-0.00028,-0.00018999999999999998,-0.00014,4
14556,15078,-0.00011,-0.00015,-0.0001,0.0001,-0.00047000000000000004,-0.00028,-0.00018999999999999998,-0.00014,4
14557,15079,-0.00011,-0.00015,-0.0001,0.0001,-0.00047000000000000004,-0.00028,-0.00018999999999999998,-0.00014,4
14558,15080,-0.00011,-0.00015,-0.0001,0.0001,-0.00047000000000000004,-0.00028,-0.00018999999999999998,-0.00014,4
14559,15081,-0.00011,-0.00015,-0.0001,0.0001,-0.00047000000000000004,-0.00028,-0.00018999999999999998,-0.00014,4
14560,15082,-0.00011,-0.00015,-0.0001,0.0001,-0.00047000000000000004,-0.00028,-0.00018999999999999998,-0.00014,4
14561,15083,-0.00011,-0.00015,-0.0001,0.0001,-0.00047000000000000004,-0.00028,-0.00018999999999999998,-0.00014,4
14562,15084,-0.00011,-0.00015,-0.0001,0.0001,-0.00047000000000000004,-0.00028,-0.00018999999999999998,-0.00014,4
14563,15085,-0.00011,-0.00015,-0.0001,0.0001,-0.00047000000000000004,-0.00028,-0.00018999999999999998,-0.00014,4
14564,15086,-0.00011,-0.00015,-0.0001,0.0001,-0.00047000000000000004,-0.00028,-0.00018999999999999998,-0.00014,4
14565,15089,-0.00011,-0.00015,-0.0001,0.0001,-0.00047000000000000004,-0.00028,-0.00018999999999999998,-0.00014,4
14566,15090,-0.00011,-0.00015,-0.0001,0.0001,-0.00047000000000000004,-0.00028,-0.00018999999999999998,-0.00014,4
14567,15091,-0.00011,-0.00015,-0.0001,0.0001,-0.00047000000000000004,-0.00028,-0.00018999999999999998,-0.00014,4
14568,15092,-0.00011,-0.00015,-0.0001,0.0001,-0.00047000000000000004,-0.00028,-0.00018999999999999998,-0.00014,4
14569,15093,-0.00011,-0.00015,-0.0001,0.0001,-0.00047000000000000004,-0.00028,-0.00018999999999999998,-0.00014,4
14570,15094,-0.00011,-0.00015,-0.0001,0.0001,-0.00047000000000000004,-0.00028,-0.00018999999999999998,-0.00014,4
14571,15095,-0.00011,-0.00015,-0.0001,0.0001,-0.00047000000000000004,-0.00028,-0.00018999999999999998,-0.00014,4
14572,15096,-0.00011,-0.00015,-0.0001,0.0001,-0.00047000000000000004,-0.00028,-0.00018999999999999998,-0.00014,4
14573,15097,-0.00011,-0.00015,-0.0001,0.0001,-0.00047000000000000004,-0.00028,-0.00018999999999999998,-0.00014,4
14574,15098,-0.00011,-0.00015,-0.0001,0.0001,-0.00047000000000000004,-0.00028,-0.00018999999999999998,-0.00014,4
14575,15099,0.0,4e-05,2e-05,-0.00053,-0.00029,4e-05,2.9999999999999997e-05,5e-05,4
14576,15100,0.0,4e-05,2e-05,-0.00053,-0.00029,4e-05,2.9999999999999997e-05,5e-05,4
14577,15102,0.0,4e-05,2e-05,-0.00053,-0.00029,4e-05,2.9999999999999997e-05,5e-05,4
14578,15103,0.0,4e-05,2e-05,-0.00053,-0.00029,4e-05,2.9999999999999997e-05,5e-05,4
14579,15104,0.0,4e-05,2e-05,-0.00053,-0.00029,4e-05,2.9999999999999997e-05,5e-05,4
14580,15105,0.0,4e-05,2e-05,-0.00053,-0.00029,4e-05,2.9999999999999997e-05,5e-05,4
14581,15106,0.0,4e-05,2e-05,-0.00053,-0.00029,4e-05,2.9999999999999997e-05,5e-05,4
14582,15107,0.0,4e-05,2e-05,-0.00053,-0.00029,4e-05,2.9999999999999997e-05,5e-05,4
14583,15108,0.0,4e-05,2e-05,-0.00053,-0.00029,4e-05,2.9999999999999997e-05,5e-05,4
14584,15109,0.0,4e-05,2e-05,-0.00053,-0.00029,4e-05,2.9999999999999997e-05,5e-05,4
14585,15110,0.0,4e-05,2e-05,-0.00053,-0.00029,4e-05,2.9999999999999997e-05,5e-05,4
14586,15111,0.0,4e-05,2e-05,-0.00053,-0.00029,4e-05,2.9999999999999997e-05,5e-05,4
14587,15112,0.0,4e-05,2e-05,-0.00053,-0.00029,4e-05,2.9999999999999997e-05,5e-05,4
14588,15113,-8e-05,-9e-05,-0.00015,-0.00026000000000000003,-0.0006799999999999999,-0.00018,-0.0001,-5.9999999999999995e-05,4
14589,15114,8e-05,0.00013000000000000002,0.00011999999999999999,0.0001,0.00013000000000000002,0.0002,0.00011,0.00011,4
14590,15115,8e-05,0.00013000000000000002,0.00011999999999999999,0.0001,0.00013000000000000002,0.0002,0.00011,0.00011,4
14591,15116,8e-05,0.00013000000000000002,0.00011999999999999999,0.0001,0.00013000000000000002,0.0002,0.00011,0.00011,4
14592,15117,8e-05,0.00013000000000000002,0.00011999999999999999,0.0001,0.00013000000000000002,0.0002,0.00011,0.00011,4
14593,15118,8e-05,0.00013000000000000002,0.00011999999999999999,0.0001,0.00013000000000000002,0.0002,0.00011,0.00011,4
14594,15119,8e-05,0.00013000000000000002,0.00011999999999999999,0.0001,0.00013000000000000002,0.0002,0.00011,0.00011,4
14595,15120,8e-05,0.00013000000000000002,0.00011999999999999999,0.0001,0.00013000000000000002,0.0002,0.00011,0.00011,4
14596,15121,8e-05,0.00013000000000000002,0.00011999999999999999,0.0001,0.00013000000000000002,0.0002,0.00011,0.00011,4
14597,15122,8e-05,0.00013000000000000002,0.00011999999999999999,0.0001,0.00013000000000000002,0.0002,0.00011,0.00011,4
14598,15123,8e-05,0.00013000000000000002,0.00011999999999999999,0.0001,0.00013000000000000002,0.0002,0.00011,0.00011,4
14599,15124,8e-05,0.00013000000000000002,0.00011999999999999999,0.0001,0.00013000000000000002,0.0002,0.00011,0.00011,4
14600,15125,8e-05,0.00013000000000000002,0.00011999999999999999,0.0001,0.00013000000000000002,0.0002,0.00011,0.00011,4
14601,15126,8e-05,0.00013000000000000002,0.00011999999999999999,0.0001,0.00013000000000000002,0.0002,0.00011,0.00011,4
14602,15127,8e-05,0.00013000000000000002,0.00011999999999999999,0.0001,0.00013000000000000002,0.0002,0.00011,0.00011,4
14603,15128,8e-05,0.00013000000000000002,0.00011999999999999999,0.0001,0.00013000000000000002,0.0002,0.00011,0.00011,4
14604,15129,8e-05,0.00013000000000000002,0.00011999999999999999,0.0001,0.00013000000000000002,0.0002,0.00011,0.00011,4
14605,15130,8e-05,0.00013000000000000002,0.00011999999999999999,0.0001,0.00013000000000000002,0.0002,0.00011,0.00011,4
14606,15131,8e-05,0.00013000000000000002,0.00011999999999999999,0.0001,0.00013000000000000002,0.0002,0.00011,0.00011,4
14607,15132,8e-05,0.00013000000000000002,0.00011999999999999999,0.0001,0.00013000000000000002,0.0002,0.00011,0.00011,4
14608,15133,8e-05,0.00013000000000000002,0.00011999999999999999,0.0001,0.00013000000000000002,0.0002,0.00011,0.00011,4
14609,15134,8e-05,0.00013000000000000002,0.00011999999999999999,0.0001,0.00013000000000000002,0.0002,0.00011,0.00011,4
14610,15135,8e-05,0.00013000000000000002,0.00011999999999999999,0.0001,0.00013000000000000002,0.0002,0.00011,0.00011,4
14611,15136,8e-05,0.00013000000000000002,0.00011999999999999999,0.0001,0.00013000000000000002,0.0002,0.00011,0.00011,4
14612,15138,8e-05,0.00013000000000000002,0.00011999999999999999,0.0001,0.00013000000000000002,0.0002,0.00011,0.00011,4
14613,15139,8e-05,0.00013000000000000002,0.00011999999999999999,0.0001,0.00013000000000000002,0.0002,0.00011,0.00011,4
14614,15140,8e-05,0.00013000000000000002,0.00011999999999999999,0.0001,0.00013000000000000002,0.0002,0.00011,0.00011,4
14615,15141,8e-05,0.00013000000000000002,0.00011999999999999999,0.0001,0.00013000000000000002,0.0002,0.00011,0.00011,4
14616,15142,8e-05,0.00013000000000000002,0.00011999999999999999,0.0001,0.00013000000000000002,0.0002,0.00011,0.00011,4
14617,15143,8e-05,0.00013000000000000002,0.00011999999999999999,0.0001,0.00013000000000000002,0.0002,0.00011,0.00011,4
14618,15144,-1e-05,-2e-05,-4e-05,5.9999999999999995e-05,0.00078,0.00028,0.00011999999999999999,2.9999999999999997e-05,4
14619,15145,-1e-05,-2e-05,-4e-05,5.9999999999999995e-05,0.00078,0.00028,0.00011999999999999999,2.9999999999999997e-05,4
14620,15146,-1e-05,-2e-05,-4e-05,5.9999999999999995e-05,0.00078,0.00028,0.00011999999999999999,2.9999999999999997e-05,4
14621,15147,-1e-05,-2e-05,-4e-05,5.9999999999999995e-05,0.00078,0.00028,0.00011999999999999999,2.9999999999999997e-05,4
14622,15148,-1e-05,-2e-05,-4e-05,5.9999999999999995e-05,0.00078,0.00028,0.00011999999999999999,2.9999999999999997e-05,4
14623,15149,-1e-05,-2e-05,-4e-05,5.9999999999999995e-05,0.00078,0.00028,0.00011999999999999999,2.9999999999999997e-05,4
14624,15150,-1e-05,-2e-05,-4e-05,5.9999999999999995e-05,0.00078,0.00028,0.00011999999999999999,2.9999999999999997e-05,4
14625,15151,-1e-05,-2e-05,-4e-05,5.9999999999999995e-05,0.00078,0.00028,0.00011999999999999999,2.9999999999999997e-05,4
14626,15152,-1e-05,-2e-05,-4e-05,5.9999999999999995e-05,0.00078,0.00028,0.00011999999999999999,2.9999999999999997e-05,4
14627,15153,-1e-05,-2e-05,-4e-05,5.9999999999999995e-05,0.00078,0.00028,0.00011999999999999999,2.9999999999999997e-05,4
14628,15154,-1e-05,-2e-05,-4e-05,5.9999999999999995e-05,0.00078,0.00028,0.00011999999999999999,2.9999999999999997e-05,4
14629,15155,-1e-05,-2e-05,-4e-05,5.9999999999999995e-05,0.00078,0.00028,0.00011999999999999999,2.9999999999999997e-05,4
14630,15156,-1e-05,-2e-05,-4e-05,5.9999999999999995e-05,0.00078,0.00028,0.00011999999999999999,2.9999999999999997e-05,4
14631,15157,-1e-05,-2e-05,-4e-05,5.9999999999999995e-05,0.00078,0.00028,0.00011999999999999999,2.9999999999999997e-05,4
14632,15158,-5e-05,-5e-05,2e-05,0.00037,-0.00091,-5e-05,-7e-05,-5.9999999999999995e-05,4
14633,15159,-5e-05,-5e-05,2e-05,0.00037,-0.00091,-5e-05,-7e-05,-5.9999999999999995e-05,4
14634,15160,-5e-05,-5e-05,2e-05,0.00037,-0.00091,-5e-05,-7e-05,-5.9999999999999995e-05,4
14635,15161,-5e-05,-5e-05,2e-05,0.00037,-0.00091,-5e-05,-7e-05,-5.9999999999999995e-05,4
14636,15162,-5e-05,-5e-05,2e-05,0.00037,-0.00091,-5e-05,-7e-05,-5.9999999999999995e-05,4
14637,15163,-5e-05,-5e-05,2e-05,0.00037,-0.00091,-5e-05,-7e-05,-5.9999999999999995e-05,4
14638,15164,-5e-05,-5e-05,2e-05,0.00037,-0.00091,-5e-05,-7e-05,-5.9999999999999995e-05,4
14639,15165,-5e-05,-5e-05,2e-05,0.00037,-0.00091,-5e-05,-7e-05,-5.9999999999999995e-05,4
14640,15166,-5e-05,-5e-05,2e-05,0.00037,-0.00091,-5e-05,-7e-05,-5.9999999999999995e-05,4
14641,15167,-5e-05,-5e-05,2e-05,0.00037,-0.00091,-5e-05,-7e-05,-5.9999999999999995e-05,4
14642,15168,-5e-05,-5e-05,2e-05,0.00037,-0.00091,-5e-05,-7e-05,-5.9999999999999995e-05,4
14643,15169,-5e-05,-5e-05,2e-05,0.00037,-0.00091,-5e-05,-7e-05,-5.9999999999999995e-05,4
14644,15170,-5e-05,-5e-05,2e-05,0.00037,-0.00091,-5e-05,-7e-05,-5.9999999999999995e-05,4
14645,15171,-5e-05,-5e-05,2e-05,0.00037,-0.00091,-5e-05,-7e-05,-5.9999999999999995e-05,4
14646,15172,-5e-05,-5e-05,2e-05,0.00037,-0.00091,-5e-05,-7e-05,-5.9999999999999995e-05,4
14647,15173,-5e-05,-5e-05,2e-05,0.00037,-0.00091,-5e-05,-7e-05,-5.9999999999999995e-05,4
14648,15174,-5e-05,-5e-05,2e-05,0.00037,-0.00091,-5e-05,-7e-05,-5.9999999999999995e-05,4
14649,15175,-2e-05,-2.9999999999999997e-05,-0.00025,-0.00067,-5.9999999999999995e-05,-0.00011,-4e-05,-1e-05,4
14650,15176,-5e-05,-2.9999999999999997e-05,-5e-05,-0.00014,0.00018,-5.9999999999999995e-05,-4e-05,-4e-05,4
14651,15177,-7e-05,-0.00013000000000000002,-0.0002,-0.0004,-0.0010199999999999999,-0.00033,-0.00018999999999999998,-0.00011999999999999999,4
14652,15178,-7e-05,-0.00013000000000000002,-0.0002,-0.0004,-0.0010199999999999999,-0.00033,-0.00018999999999999998,-0.00011999999999999999,4
14653,15179,-7e-05,-0.00013000000000000002,-0.0002,-0.0004,-0.0010199999999999999,-0.00033,-0.00018999999999999998,-0.00011999999999999999,4
14654,15180,-7e-05,-0.00013000000000000002,-0.0002,-0.0004,-0.0010199999999999999,-0.00033,-0.00018999999999999998,-0.00011999999999999999,4
14655,15181,-7e-05,-0.00013000000000000002,-0.0002,-0.0004,-0.0010199999999999999,-0.00033,-0.00018999999999999998,-0.00011999999999999999,4
14656,15182,-7e-05,-0.00013000000000000002,-0.0002,-0.0004,-0.0010199999999999999,-0.00033,-0.00018999999999999998,-0.00011999999999999999,4
14657,15183,-7e-05,-0.00013000000000000002,-0.0002,-0.0004,-0.0010199999999999999,-0.00033,-0.00018999999999999998,-0.00011999999999999999,4
14658,15184,-7e-05,-0.00013000000000000002,-0.0002,-0.0004,-0.0010199999999999999,-0.00033,-0.00018999999999999998,-0.00011999999999999999,4
14659,15185,-7e-05,-0.00013000000000000002,-0.0002,-0.0004,-0.0010199999999999999,-0.00033,-0.00018999999999999998,-0.00011999999999999999,4
14660,15186,-7e-05,-0.00013000000000000002,-0.0002,-0.0004,-0.0010199999999999999,-0.00033,-0.00018999999999999998,-0.00011999999999999999,4
14661,15188,-7e-05,-0.00013000000000000002,-0.0002,-0.0004,-0.0010199999999999999,-0.00033,-0.00018999999999999998,-0.00011999999999999999,4
14662,15189,-7e-05,-0.00013000000000000002,-0.0002,-0.0004,-0.0010199999999999999,-0.00033,-0.00018999999999999998,-0.00011999999999999999,4
14663,15190,-7e-05,-0.00013000000000000002,-0.0002,-0.0004,-0.0010199999999999999,-0.00033,-0.00018999999999999998,-0.00011999999999999999,4
14664,15191,-7e-05,-0.00013000000000000002,-0.0002,-0.0004,-0.0010199999999999999,-0.00033,-0.00018999999999999998,-0.00011999999999999999,4
14665,15192,-7e-05,-0.00013000000000000002,-0.0002,-0.0004,-0.0010199999999999999,-0.00033,-0.00018999999999999998,-0.00011999999999999999,4
14666,15193,-7e-05,-0.00013000000000000002,-0.0002,-0.0004,-0.0010199999999999999,-0.00033,-0.00018999999999999998,-0.00011999999999999999,4
14667,15194,-7e-05,-0.00013000000000000002,-0.0002,-0.0004,-0.0010199999999999999,-0.00033,-0.00018999999999999998,-0.00011999999999999999,4
14668,15195,-7e-05,-0.00013000000000000002,-0.0002,-0.0004,-0.0010199999999999999,-0.00033,-0.00018999999999999998,-0.00011999999999999999,4
14669,15196,-1e-05,-2.9999999999999997e-05,-0.0001,-0.00011,-0.00072,-0.00016999999999999999,-5e-05,-4e-05,4
14670,15197,-5.9999999999999995e-05,-0.0001,-0.00021,-7e-05,-0.00027,-0.00011999999999999999,-5.9999999999999995e-05,-2.9999999999999997e-05,4
14671,15198,-5.9999999999999995e-05,-0.0001,-0.00021,-7e-05,-0.00027,-0.00011999999999999999,-5.9999999999999995e-05,-2.9999999999999997e-05,4
14672,15199,-5.9999999999999995e-05,-0.0001,-0.00021,-7e-05,-0.00027,-0.00011999999999999999,-5.9999999999999995e-05,-2.9999999999999997e-05,4
14673,15200,-5.9999999999999995e-05,-0.0001,-0.00021,-7e-05,-0.00027,-0.00011999999999999999,-5.9999999999999995e-05,-2.9999999999999997e-05,4
14674,15201,-5.9999999999999995e-05,-0.0001,-0.00021,-7e-05,-0.00027,-0.00011999999999999999,-5.9999999999999995e-05,-2.9999999999999997e-05,4
14675,15202,-5.9999999999999995e-05,-0.0001,-0.00021,-7e-05,-0.00027,-0.00011999999999999999,-5.9999999999999995e-05,-2.9999999999999997e-05,4
14676,15203,-5.9999999999999995e-05,-0.0001,-0.00021,-7e-05,-0.00027,-0.00011999999999999999,-5.9999999999999995e-05,-2.9999999999999997e-05,4
14677,15204,-5.9999999999999995e-05,-0.0001,-0.00021,-7e-05,-0.00027,-0.00011999999999999999,-5.9999999999999995e-05,-2.9999999999999997e-05,4
14678,15205,-5.9999999999999995e-05,-0.0001,-0.00021,-7e-05,-0.00027,-0.00011999999999999999,-5.9999999999999995e-05,-2.9999999999999997e-05,4
14679,15206,-5.9999999999999995e-05,-0.0001,-0.00021,-7e-05,-0.00027,-0.00011999999999999999,-5.9999999999999995e-05,-2.9999999999999997e-05,4
14680,15207,-5.9999999999999995e-05,-0.0001,-0.00021,-7e-05,-0.00027,-0.00011999999999999999,-5.9999999999999995e-05,-2.9999999999999997e-05,4
14681,15208,-5.9999999999999995e-05,-0.0001,-0.00021,-7e-05,-0.00027,-0.00011999999999999999,-5.9999999999999995e-05,-2.9999999999999997e-05,4
14682,15209,-5.9999999999999995e-05,-0.0001,-0.00021,-7e-05,-0.00027,-0.00011999999999999999,-5.9999999999999995e-05,-2.9999999999999997e-05,4
14683,15210,-5.9999999999999995e-05,-0.0001,-0.00021,-7e-05,-0.00027,-0.00011999999999999999,-5.9999999999999995e-05,-2.9999999999999997e-05,4
14684,15211,-5.9999999999999995e-05,-0.0001,-0.00021,-7e-05,-0.00027,-0.00011999999999999999,-5.9999999999999995e-05,-2.9999999999999997e-05,4
14685,15212,-5.9999999999999995e-05,-0.0001,-0.00021,-7e-05,-0.00027,-0.00011999999999999999,-5.9999999999999995e-05,-2.9999999999999997e-05,4
14686,15213,-5.9999999999999995e-05,-0.0001,-0.00021,-7e-05,-0.00027,-0.00011999999999999999,-5.9999999999999995e-05,-2.9999999999999997e-05,4
14687,15214,-5.9999999999999995e-05,-0.0001,-0.00021,-7e-05,-0.00027,-0.00011999999999999999,-5.9999999999999995e-05,-2.9999999999999997e-05,4
14688,15215,-5.9999999999999995e-05,-0.0001,-0.00021,-7e-05,-0.00027,-0.00011999999999999999,-5.9999999999999995e-05,-2.9999999999999997e-05,4
14689,15216,-5.9999999999999995e-05,-0.0001,-0.00021,-7e-05,-0.00027,-0.00011999999999999999,-5.9999999999999995e-05,-2.9999999999999997e-05,4
14690,15217,-5.9999999999999995e-05,-0.0001,-0.00021,-7e-05,-0.00027,-0.00011999999999999999,-5.9999999999999995e-05,-2.9999999999999997e-05,4
14691,15218,-5.9999999999999995e-05,-0.0001,-0.00021,-7e-05,-0.00027,-0.00011999999999999999,-5.9999999999999995e-05,-2.9999999999999997e-05,4
14692,15219,1e-05,4e-05,0.00026000000000000003,0.00058,0.00074,0.00011,2.9999999999999997e-05,1e-05,4
14693,15220,1e-05,4e-05,0.00026000000000000003,0.00058,0.00074,0.00011,2.9999999999999997e-05,1e-05,4
14694,15221,1e-05,4e-05,0.00026000000000000003,0.00058,0.00074,0.00011,2.9999999999999997e-05,1e-05,4
14695,15222,1e-05,4e-05,0.00026000000000000003,0.00058,0.00074,0.00011,2.9999999999999997e-05,1e-05,4
14696,15223,1e-05,4e-05,0.00026000000000000003,0.00058,0.00074,0.00011,2.9999999999999997e-05,1e-05,4
14697,15224,1e-05,4e-05,0.00026000000000000003,0.00058,0.00074,0.00011,2.9999999999999997e-05,1e-05,4
14698,15225,1e-05,4e-05,0.00026000000000000003,0.00058,0.00074,0.00011,2.9999999999999997e-05,1e-05,4
14699,15226,1e-05,4e-05,0.00026000000000000003,0.00058,0.00074,0.00011,2.9999999999999997e-05,1e-05,4
14700,15227,1e-05,4e-05,0.00026000000000000003,0.00058,0.00074,0.00011,2.9999999999999997e-05,1e-05,4
14701,15228,1e-05,4e-05,0.00026000000000000003,0.00058,0.00074,0.00011,2.9999999999999997e-05,1e-05,4
14702,15229,1e-05,4e-05,0.00026000000000000003,0.00058,0.00074,0.00011,2.9999999999999997e-05,1e-05,4
14703,15230,1e-05,4e-05,0.00026000000000000003,0.00058,0.00074,0.00011,2.9999999999999997e-05,1e-05,4
14704,15231,1e-05,4e-05,0.00026000000000000003,0.00058,0.00074,0.00011,2.9999999999999997e-05,1e-05,4
14705,15232,-2e-05,-5e-05,-4e-05,2e-05,0.00056,-4e-05,-2.9999999999999997e-05,-1e-05,4
14706,15233,-2e-05,-5e-05,-4e-05,2e-05,0.00056,-4e-05,-2.9999999999999997e-05,-1e-05,4
14707,15234,-2e-05,-5e-05,-4e-05,2e-05,0.00056,-4e-05,-2.9999999999999997e-05,-1e-05,4
14708,15235,-2e-05,-5e-05,-4e-05,2e-05,0.00056,-4e-05,-2.9999999999999997e-05,-1e-05,4
14709,15236,-2e-05,-5e-05,-4e-05,2e-05,0.00056,-4e-05,-2.9999999999999997e-05,-1e-05,4
14710,15238,-2e-05,-5e-05,-4e-05,2e-05,0.00056,-4e-05,-2.9999999999999997e-05,-1e-05,4
14711,15239,-2e-05,-5e-05,-4e-05,2e-05,0.00056,-4e-05,-2.9999999999999997e-05,-1e-05,4
14712,15240,-2e-05,-4e-05,-5.9999999999999995e-05,-0.0001,-0.00039,-0.00029,-0.00011999999999999999,-7e-05,4
14713,15241,-2e-05,-4e-05,-5.9999999999999995e-05,-0.0001,-0.00039,-0.00029,-0.00011999999999999999,-7e-05,4
14714,15242,-2e-05,-4e-05,-5.9999999999999995e-05,-0.0001,-0.00039,-0.00029,-0.00011999999999999999,-7e-05,4
14715,15243,-2e-05,-4e-05,-5.9999999999999995e-05,-0.0001,-0.00039,-0.00029,-0.00011999999999999999,-7e-05,4
14716,15244,-2e-05,-4e-05,-5.9999999999999995e-05,-0.0001,-0.00039,-0.00029,-0.00011999999999999999,-7e-05,4
14717,15245,-2e-05,-4e-05,-5.9999999999999995e-05,-0.0001,-0.00039,-0.00029,-0.00011999999999999999,-7e-05,4
14718,15246,-2e-05,-4e-05,-5.9999999999999995e-05,-0.0001,-0.00039,-0.00029,-0.00011999999999999999,-7e-05,4
14719,15247,-2e-05,-4e-05,-5.9999999999999995e-05,-0.0001,-0.00039,-0.00029,-0.00011999999999999999,-7e-05,4
14720,15248,-2e-05,-4e-05,-5.9999999999999995e-05,-0.0001,-0.00039,-0.00029,-0.00011999999999999999,-7e-05,4
14721,15249,-2e-05,-4e-05,-5.9999999999999995e-05,-0.0001,-0.00039,-0.00029,-0.00011999999999999999,-7e-05,4
14722,15250,-2e-05,-4e-05,-5.9999999999999995e-05,-0.0001,-0.00039,-0.00029,-0.00011999999999999999,-7e-05,4
14723,15251,-2e-05,-4e-05,-5.9999999999999995e-05,-0.0001,-0.00039,-0.00029,-0.00011999999999999999,-7e-05,4
14724,15252,-2e-05,-4e-05,-5.9999999999999995e-05,-0.0001,-0.00039,-0.00029,-0.00011999999999999999,-7e-05,4
14725,15253,-2e-05,-4e-05,-5.9999999999999995e-05,-0.0001,-0.00039,-0.00029,-0.00011999999999999999,-7e-05,4
14726,15254,-2e-05,-4e-05,-5.9999999999999995e-05,-0.0001,-0.00039,-0.00029,-0.00011999999999999999,-7e-05,4
14727,15255,-2e-05,-4e-05,-5.9999999999999995e-05,-0.0001,-0.00039,-0.00029,-0.00011999999999999999,-7e-05,4
14728,15257,-2e-05,-4e-05,-5.9999999999999995e-05,-0.0001,-0.00039,-0.00029,-0.00011999999999999999,-7e-05,4
14729,15258,0.0,-1e-05,-0.00014,-0.00055,-0.00018999999999999998,1e-05,1e-05,1e-05,4
14730,15259,0.0,-1e-05,-0.00014,-0.00055,-0.00018999999999999998,1e-05,1e-05,1e-05,4
14731,15260,0.0,-1e-05,-0.00014,-0.00055,-0.00018999999999999998,1e-05,1e-05,1e-05,4
14732,15261,0.0,-1e-05,-0.00014,-0.00055,-0.00018999999999999998,1e-05,1e-05,1e-05,4
14733,15262,0.0,-1e-05,-0.00014,-0.00055,-0.00018999999999999998,1e-05,1e-05,1e-05,4
14734,15263,0.0,-1e-05,-0.00014,-0.00055,-0.00018999999999999998,1e-05,1e-05,1e-05,4
14735,15264,0.0,-1e-05,-0.00014,-0.00055,-0.00018999999999999998,1e-05,1e-05,1e-05,4
14736,15265,0.0,-1e-05,-0.00014,-0.00055,-0.00018999999999999998,1e-05,1e-05,1e-05,4
14737,15266,0.0,-1e-05,-0.00014,-0.00055,-0.00018999999999999998,1e-05,1e-05,1e-05,4
14738,15267,0.0,-1e-05,-0.00014,-0.00055,-0.00018999999999999998,1e-05,1e-05,1e-05,4
14739,15268,0.0,-1e-05,-0.00014,-0.00055,-0.00018999999999999998,1e-05,1e-05,1e-05,4
14740,15269,0.0,-1e-05,-0.00014,-0.00055,-0.00018999999999999998,1e-05,1e-05,1e-05,4
14741,15270,0.0,-1e-05,-0.00014,-0.00055,-0.00018999999999999998,1e-05,1e-05,1e-05,4
14742,15271,0.0,-1e-05,-0.00014,-0.00055,-0.00018999999999999998,1e-05,1e-05,1e-05,4
14743,15272,0.0,-1e-05,-0.00014,-0.00055,-0.00018999999999999998,1e-05,1e-05,1e-05,4
14744,15273,0.0,-1e-05,-0.00014,-0.00055,-0.00018999999999999998,1e-05,1e-05,1e-05,4
14745,15274,0.0,-1e-05,-0.00014,-0.00055,-0.00018999999999999998,1e-05,1e-05,1e-05,4
14746,15275,0.0,-1e-05,-0.00014,-0.00055,-0.00018999999999999998,1e-05,1e-05,1e-05,4
14747,15276,0.0,-1e-05,-0.00014,-0.00055,-0.00018999999999999998,1e-05,1e-05,1e-05,4
14748,15277,0.0,-1e-05,-0.00014,-0.00055,-0.00018999999999999998,1e-05,1e-05,1e-05,4
14749,15278,0.0,-1e-05,-0.00014,-0.00055,-0.00018999999999999998,1e-05,1e-05,1e-05,4
14750,15279,-1e-05,-2.9999999999999997e-05,8e-05,0.00047999999999999996,-0.00055,2.9999999999999997e-05,-2e-05,-5e-05,4
14751,15280,-1e-05,-2.9999999999999997e-05,8e-05,0.00047999999999999996,-0.00055,2.9999999999999997e-05,-2e-05,-5e-05,4
14752,15281,-1e-05,-2.9999999999999997e-05,8e-05,0.00047999999999999996,-0.00055,2.9999999999999997e-05,-2e-05,-5e-05,4
14753,15282,-1e-05,-2.9999999999999997e-05,8e-05,0.00047999999999999996,-0.00055,2.9999999999999997e-05,-2e-05,-5e-05,4
14754,15283,-1e-05,-2.9999999999999997e-05,8e-05,0.00047999999999999996,-0.00055,2.9999999999999997e-05,-2e-05,-5e-05,4
14755,15284,-1e-05,-2.9999999999999997e-05,8e-05,0.00047999999999999996,-0.00055,2.9999999999999997e-05,-2e-05,-5e-05,4
14756,15285,-1e-05,-2.9999999999999997e-05,8e-05,0.00047999999999999996,-0.00055,2.9999999999999997e-05,-2e-05,-5e-05,4
14757,15286,-1e-05,-2.9999999999999997e-05,8e-05,0.00047999999999999996,-0.00055,2.9999999999999997e-05,-2e-05,-5e-05,4
14758,15288,-1e-05,-2.9999999999999997e-05,8e-05,0.00047999999999999996,-0.00055,2.9999999999999997e-05,-2e-05,-5e-05,4
14759,15289,-1e-05,-2.9999999999999997e-05,8e-05,0.00047999999999999996,-0.00055,2.9999999999999997e-05,-2e-05,-5e-05,4
14760,15290,-1e-05,-2.9999999999999997e-05,8e-05,0.00047999999999999996,-0.00055,2.9999999999999997e-05,-2e-05,-5e-05,4
14761,15291,-1e-05,-2.9999999999999997e-05,8e-05,0.00047999999999999996,-0.00055,2.9999999999999997e-05,-2e-05,-5e-05,4
14762,15292,-5e-05,-9e-05,-7e-05,-0.00011,-0.0008300000000000001,-0.00016999999999999999,-0.00011999999999999999,-9e-05,4
